2theta /stopnie	natê¿enie/jednostki umowne
 10.000     100.000
 10.010     100.000
 10.020     100.000
 10.030     100.000
 10.040     100.000
 10.050     100.000
 10.060     100.000
 10.070     100.000
 10.080     100.000
 10.090     100.000
 10.100     100.000
 10.110     100.000
 10.120     100.000
 10.130     100.000
 10.140     100.000
 10.150     100.000
 10.160     100.000
 10.170     100.000
 10.180     100.000
 10.190     100.000
 10.200     100.000
 10.210     100.000
 10.220     100.000
 10.230     100.000
 10.240     100.000
 10.250     100.000
 10.260     100.000
 10.270     100.000
 10.281     100.000
 10.291     100.000
 10.301     100.000
 10.311     100.000
 10.321     100.000
 10.331     100.000
 10.341     100.000
 10.351     100.000
 10.361     100.000
 10.371     100.000
 10.381     100.000
 10.391     100.000
 10.401     100.000
 10.411     100.000
 10.421     100.000
 10.431     100.000
 10.441     100.000
 10.451     100.000
 10.461     100.000
 10.471     100.000
 10.481     100.000
 10.491     100.000
 10.501     100.000
 10.511     100.000
 10.521     100.000
 10.531     100.000
 10.541     100.000
 10.551     100.000
 10.561     100.000
 10.571     100.000
 10.581     100.000
 10.591     100.000
 10.601     100.000
 10.611     100.000
 10.621     100.000
 10.631     100.000
 10.641     100.000
 10.651     100.000
 10.661     100.000
 10.671     100.000
 10.681     100.000
 10.691     100.000
 10.701     100.000
 10.711     100.000
 10.721     100.000
 10.731     100.000
 10.741     100.000
 10.751     100.000
 10.761     100.000
 10.771     100.000
 10.781     100.000
 10.791     100.000
 10.801     100.000
 10.811     100.000
 10.821     100.000
 10.831     100.000
 10.842     100.000
 10.852     100.000
 10.862     100.000
 10.872     100.000
 10.882     100.000
 10.892     100.000
 10.902     100.000
 10.912     100.000
 10.922     100.000
 10.932     100.000
 10.942     100.000
 10.952     100.000
 10.962     100.000
 10.972     100.000
 10.982     100.000
 10.992     100.000
 11.002     100.000
 11.012     100.000
 11.022     100.000
 11.032     100.000
 11.042     100.000
 11.052     100.000
 11.062     100.000
 11.072     100.000
 11.082     100.000
 11.092     100.000
 11.102     100.000
 11.112     100.000
 11.122     100.000
 11.132     100.000
 11.142     100.000
 11.152     100.000
 11.162     100.000
 11.172     100.000
 11.182     100.000
 11.192     100.000
 11.202     100.000
 11.212     100.000
 11.222     100.000
 11.232     100.000
 11.242     100.000
 11.252     100.000
 11.262     100.000
 11.272     100.000
 11.282     100.000
 11.292     100.000
 11.302     100.000
 11.312     100.000
 11.322     100.000
 11.332     100.000
 11.342     100.000
 11.352     100.000
 11.362     100.000
 11.372     100.000
 11.382     100.000
 11.393     100.000
 11.403     100.000
 11.413     100.000
 11.423     100.000
 11.433     100.000
 11.443     100.000
 11.453     100.000
 11.463     100.000
 11.473     100.000
 11.483     100.000
 11.493     100.000
 11.503     100.000
 11.513     100.000
 11.523     100.000
 11.533     100.000
 11.543     100.000
 11.553     100.000
 11.563     100.000
 11.573     100.000
 11.583     100.000
 11.593     100.000
 11.603     100.000
 11.613     100.000
 11.623     100.000
 11.633     100.000
 11.643     100.000
 11.653     100.000
 11.663     100.000
 11.673     100.000
 11.683     100.000
 11.693     100.000
 11.703     100.000
 11.713     100.000
 11.723     100.000
 11.733     100.000
 11.743     100.000
 11.753     100.000
 11.763     100.000
 11.773     100.000
 11.783     100.000
 11.793     100.000
 11.803     100.000
 11.813     100.000
 11.823     100.000
 11.833     100.000
 11.843     100.000
 11.853     100.000
 11.863     100.000
 11.873     100.000
 11.883     100.000
 11.893     100.000
 11.903     100.000
 11.913     100.000
 11.923     100.000
 11.933     100.000
 11.943     100.000
 11.954     100.000
 11.964     100.000
 11.974     100.000
 11.984     100.000
 11.994     100.000
 12.004     100.000
 12.014     100.000
 12.024     100.000
 12.034     100.000
 12.044     100.000
 12.054     100.000
 12.064     100.000
 12.074     100.000
 12.084     100.000
 12.094     100.000
 12.104     100.000
 12.114     100.000
 12.124     100.000
 12.134     100.000
 12.144     100.000
 12.154     100.000
 12.164     100.000
 12.174     100.000
 12.184     100.000
 12.194     100.000
 12.204     100.000
 12.214     100.000
 12.224     100.000
 12.234     100.000
 12.244     100.000
 12.254     100.000
 12.264     100.000
 12.274     100.000
 12.284     100.000
 12.294     100.000
 12.304     100.000
 12.314     100.000
 12.324     100.000
 12.334     100.000
 12.344     100.000
 12.354     100.000
 12.364     100.000
 12.374     100.000
 12.384     100.000
 12.394     100.000
 12.404     100.000
 12.414     100.000
 12.424     100.000
 12.434     100.000
 12.444     100.000
 12.454     100.000
 12.464     100.000
 12.474     100.000
 12.484     100.000
 12.494     100.000
 12.505     100.000
 12.515     100.000
 12.525     100.000
 12.535     100.000
 12.545     100.000
 12.555     100.000
 12.565     100.000
 12.575     100.000
 12.585     100.000
 12.595     100.000
 12.605     100.000
 12.615     100.000
 12.625     100.000
 12.635     100.000
 12.645     100.000
 12.655     100.000
 12.665     100.000
 12.675     100.000
 12.685     100.000
 12.695     100.000
 12.705     100.000
 12.715     100.000
 12.725     100.000
 12.735     100.000
 12.745     100.000
 12.755     100.000
 12.765     100.000
 12.775     100.000
 12.785     100.000
 12.795     100.000
 12.805     100.000
 12.815     100.000
 12.825     100.000
 12.835     100.000
 12.845     100.000
 12.855     100.000
 12.865     100.000
 12.875     100.000
 12.885     100.000
 12.895     100.000
 12.905     100.000
 12.915     100.000
 12.925     100.000
 12.935     100.000
 12.945     100.000
 12.955     100.000
 12.965     100.000
 12.975     100.000
 12.985     100.000
 12.995     100.000
 13.005     100.000
 13.015     100.000
 13.025     100.000
 13.035     100.000
 13.045     100.000
 13.055     100.000
 13.066     100.000
 13.076     100.000
 13.086     100.000
 13.096     100.000
 13.106     100.000
 13.116     100.000
 13.126     100.000
 13.136     100.000
 13.146     100.000
 13.156     100.000
 13.166     100.000
 13.176     100.000
 13.186     100.000
 13.196     100.000
 13.206     100.000
 13.216     100.000
 13.226     100.000
 13.236     100.000
 13.246     100.000
 13.256     100.000
 13.266     100.000
 13.276     100.000
 13.286     100.000
 13.296     100.000
 13.306     100.000
 13.316     100.000
 13.326     100.000
 13.336     100.000
 13.346     100.000
 13.356     100.000
 13.366     100.000
 13.376     100.000
 13.386     100.000
 13.396     100.000
 13.406     100.000
 13.416     100.000
 13.426     100.000
 13.436     100.000
 13.446     100.000
 13.456     100.000
 13.466     100.000
 13.476     100.000
 13.486     100.000
 13.496     100.000
 13.506     100.000
 13.516     100.000
 13.526     100.000
 13.536     100.000
 13.546     100.000
 13.556     100.000
 13.566     100.000
 13.576     100.000
 13.586     100.000
 13.596     100.000
 13.606     100.000
 13.616     100.000
 13.627     100.000
 13.637     100.000
 13.647     100.000
 13.657     100.000
 13.667     100.000
 13.677     100.000
 13.687     100.000
 13.697     100.000
 13.707     100.000
 13.717     100.000
 13.727     100.000
 13.737     100.000
 13.747     100.000
 13.757     100.000
 13.767     100.000
 13.777     100.000
 13.787     100.000
 13.797     100.000
 13.807     100.000
 13.817     100.000
 13.827     100.000
 13.837     100.000
 13.847     100.000
 13.857     100.000
 13.867     100.000
 13.877     100.000
 13.887     100.000
 13.897     100.000
 13.907     100.000
 13.917     100.000
 13.927     100.000
 13.937     100.000
 13.947     100.000
 13.957     100.000
 13.967     100.000
 13.977     100.000
 13.987     100.000
 13.997     100.000
 14.007     100.000
 14.017     100.000
 14.027     100.000
 14.037     100.000
 14.047     100.000
 14.057     100.000
 14.067     100.000
 14.077     100.000
 14.087     100.000
 14.097     100.000
 14.107     100.000
 14.117     100.000
 14.127     100.000
 14.137     100.000
 14.147     100.000
 14.157     100.000
 14.167     100.000
 14.178     100.000
 14.188     100.000
 14.198     100.000
 14.208     100.000
 14.218     100.000
 14.228     100.000
 14.238     100.000
 14.248     100.000
 14.258     100.000
 14.268     100.000
 14.278     100.000
 14.288     100.000
 14.298     100.000
 14.308     100.000
 14.318     100.000
 14.328     100.000
 14.338     100.000
 14.348     100.000
 14.358     100.000
 14.368     100.000
 14.378     100.000
 14.388     100.000
 14.398     100.000
 14.408     100.000
 14.418     100.000
 14.428     100.000
 14.438     100.000
 14.448     100.000
 14.458     100.000
 14.468     100.000
 14.478     100.000
 14.488     100.000
 14.498     100.000
 14.508     100.000
 14.518     100.000
 14.528     100.000
 14.538     100.000
 14.548     100.000
 14.558     100.000
 14.568     100.000
 14.578     100.000
 14.588     100.000
 14.598     100.000
 14.608     100.000
 14.618     100.000
 14.628     100.000
 14.638     100.000
 14.648     100.000
 14.658     100.000
 14.668     100.000
 14.678     100.000
 14.688     100.000
 14.698     100.000
 14.708     100.000
 14.718     100.000
 14.728     100.000
 14.739     100.000
 14.749     100.000
 14.759     100.000
 14.769     100.000
 14.779     100.000
 14.789     100.000
 14.799     100.000
 14.809     100.000
 14.819     100.000
 14.829     100.000
 14.839     100.000
 14.849     100.000
 14.859     100.000
 14.869     100.000
 14.879     100.000
 14.889     100.000
 14.899     100.000
 14.909     100.000
 14.919     100.000
 14.929     100.000
 14.939     100.000
 14.949     100.000
 14.959     100.000
 14.969     100.000
 14.979     100.000
 14.989     100.000
 14.999     100.000
 15.009     100.000
 15.019     100.000
 15.029     100.000
 15.039     100.000
 15.049     100.000
 15.059     100.000
 15.069     100.000
 15.079     100.000
 15.089     100.000
 15.099     100.000
 15.109     100.000
 15.119     100.000
 15.129     100.000
 15.139     100.000
 15.149     100.000
 15.159     100.000
 15.169     100.000
 15.179     100.000
 15.189     100.000
 15.199     100.000
 15.209     100.000
 15.219     100.000
 15.229     100.000
 15.239     100.000
 15.249     100.000
 15.259     100.000
 15.269     100.000
 15.279     100.000
 15.290     100.000
 15.300     100.000
 15.310     100.000
 15.320     100.000
 15.330     100.000
 15.340     100.000
 15.350     100.000
 15.360     100.000
 15.370     100.000
 15.380     100.000
 15.390     100.000
 15.400     100.000
 15.410     100.000
 15.420     100.000
 15.430     100.000
 15.440     100.000
 15.450     100.000
 15.460     100.000
 15.470     100.000
 15.480     100.000
 15.490     100.000
 15.500     100.000
 15.510     100.000
 15.520     100.000
 15.530     100.000
 15.540     100.000
 15.550     100.000
 15.560     100.000
 15.570     100.000
 15.580     100.000
 15.590     100.000
 15.600     100.000
 15.610     100.000
 15.620     100.000
 15.630     100.000
 15.640     100.000
 15.650     100.000
 15.660     100.000
 15.670     100.000
 15.680     100.000
 15.690     100.000
 15.700     100.000
 15.710     100.000
 15.720     100.000
 15.730     100.000
 15.740     100.000
 15.750     100.000
 15.760     100.000
 15.770     100.000
 15.780     100.000
 15.790     100.000
 15.800     100.000
 15.810     100.000
 15.820     100.000
 15.830     100.000
 15.840     100.000
 15.851     100.000
 15.861     100.000
 15.871     100.000
 15.881     100.000
 15.891     100.000
 15.901     100.000
 15.911     100.000
 15.921     100.000
 15.931     100.000
 15.941     100.000
 15.951     100.000
 15.961     100.000
 15.971     100.000
 15.981     100.000
 15.991     100.000
 16.001     100.000
 16.011     100.000
 16.021     100.000
 16.031     100.000
 16.041     100.000
 16.051     100.000
 16.061     100.000
 16.071     100.000
 16.081     100.000
 16.091     100.000
 16.101     100.000
 16.111     100.000
 16.121     100.000
 16.131     100.000
 16.141     100.000
 16.151     100.000
 16.161     100.000
 16.171     100.000
 16.181     100.000
 16.191     100.000
 16.201     100.000
 16.211     100.000
 16.221     100.000
 16.231     100.000
 16.241     100.000
 16.251     100.000
 16.261     100.000
 16.271     100.000
 16.281     100.000
 16.291     100.000
 16.301     100.000
 16.311     100.000
 16.321     100.000
 16.331     100.000
 16.341     100.000
 16.351     100.000
 16.361     100.000
 16.371     100.000
 16.381     100.000
 16.391     100.000
 16.402     100.000
 16.412     100.000
 16.422     100.000
 16.432     100.000
 16.442     100.000
 16.452     100.000
 16.462     100.000
 16.472     100.000
 16.482     100.000
 16.492     100.000
 16.502     100.000
 16.512     100.000
 16.522     100.000
 16.532     100.000
 16.542     100.000
 16.552     100.000
 16.562     100.000
 16.572     100.000
 16.582     100.000
 16.592     100.000
 16.602     100.000
 16.612     100.000
 16.622     100.000
 16.632     100.000
 16.642     100.000
 16.652     100.000
 16.662     100.000
 16.672     100.000
 16.682     100.000
 16.692     100.000
 16.702     100.000
 16.712     100.000
 16.722     100.000
 16.732     100.000
 16.742     100.000
 16.752     100.000
 16.762     100.000
 16.772     100.000
 16.782     100.000
 16.792     100.000
 16.802     100.000
 16.812     100.000
 16.822     100.000
 16.832     100.000
 16.842     100.000
 16.852     100.000
 16.862     100.000
 16.872     100.000
 16.882     100.000
 16.892     100.000
 16.902     100.000
 16.912     100.000
 16.922     100.000
 16.932     100.000
 16.942     100.000
 16.952     100.000
 16.963     100.000
 16.973     100.000
 16.983     100.000
 16.993     100.000
 17.003     100.000
 17.013     100.000
 17.023     100.000
 17.033     100.000
 17.043     100.000
 17.053     100.000
 17.063     100.000
 17.073     100.000
 17.083     100.000
 17.093     100.000
 17.103     100.000
 17.113     100.000
 17.123     100.000
 17.133     100.000
 17.143     100.000
 17.153     100.000
 17.163     100.000
 17.173     100.000
 17.183     100.000
 17.193     100.000
 17.203     100.000
 17.213     100.000
 17.223     100.000
 17.233     100.000
 17.243     100.000
 17.253     100.000
 17.263     100.000
 17.273     100.000
 17.283     100.000
 17.293     100.000
 17.303     100.000
 17.313     100.000
 17.323     100.000
 17.333     100.000
 17.343     100.000
 17.353     100.000
 17.363     100.000
 17.373     100.000
 17.383     100.000
 17.393     100.000
 17.403     100.000
 17.413     100.000
 17.423     100.000
 17.433     100.000
 17.443     100.000
 17.453     100.000
 17.463     100.000
 17.473     100.000
 17.483     100.000
 17.493     100.000
 17.503     100.000
 17.514     100.000
 17.524     100.000
 17.534     100.000
 17.544     100.000
 17.554     100.000
 17.564     100.000
 17.574     100.000
 17.584     100.000
 17.594     100.000
 17.604     100.000
 17.614     100.000
 17.624     100.000
 17.634     100.000
 17.644     100.000
 17.654     100.000
 17.664     100.000
 17.674     100.000
 17.684     100.000
 17.694     100.000
 17.704     100.000
 17.714     100.000
 17.724     100.000
 17.734     100.000
 17.744     100.000
 17.754     100.000
 17.764     100.000
 17.774     100.000
 17.784     100.000
 17.794     100.000
 17.804     100.000
 17.814     100.000
 17.824     100.000
 17.834     100.000
 17.844     100.000
 17.854     100.000
 17.864     100.000
 17.874     100.000
 17.884     100.000
 17.894     100.000
 17.904     100.000
 17.914     100.000
 17.924     100.000
 17.934     100.000
 17.944     100.000
 17.954     100.000
 17.964     100.000
 17.974     100.000
 17.984     100.000
 17.994     100.000
 18.004     100.000
 18.014     100.000
 18.024     100.000
 18.034     100.000
 18.044     100.000
 18.054     100.000
 18.064     100.000
 18.075     100.000
 18.085     100.000
 18.095     100.000
 18.105     100.000
 18.115     100.000
 18.125     100.000
 18.135     100.000
 18.145     100.000
 18.155     100.000
 18.165     100.000
 18.175     100.000
 18.185     100.000
 18.195     100.000
 18.205     100.000
 18.215     100.000
 18.225     100.000
 18.235     100.000
 18.245     100.000
 18.255     100.000
 18.265     100.000
 18.275     100.000
 18.285     100.000
 18.295     100.000
 18.305     100.000
 18.315     100.000
 18.325     100.000
 18.335     100.000
 18.345     100.000
 18.355     100.000
 18.365     100.000
 18.375     100.000
 18.385     100.000
 18.395     100.000
 18.405     100.000
 18.415     100.000
 18.425     100.000
 18.435     100.000
 18.445     100.000
 18.455     100.000
 18.465     100.000
 18.475     100.000
 18.485     100.000
 18.495     100.000
 18.505     100.000
 18.515     100.000
 18.525     100.000
 18.535     100.000
 18.545     100.000
 18.555     100.000
 18.565     100.000
 18.575     100.000
 18.585     100.000
 18.595     100.000
 18.605     100.000
 18.615     100.000
 18.625     100.000
 18.636     100.000
 18.646     100.000
 18.656     100.000
 18.666     100.000
 18.676     100.000
 18.686     100.000
 18.696     100.000
 18.706     100.000
 18.716     100.000
 18.726     100.000
 18.736     100.000
 18.746     100.000
 18.756     100.000
 18.766     100.000
 18.776     100.000
 18.786     100.000
 18.796     100.000
 18.806     100.000
 18.816     100.000
 18.826     100.000
 18.836     100.000
 18.846     100.000
 18.856     100.000
 18.866     100.000
 18.876     100.000
 18.886     100.000
 18.896     100.000
 18.906     100.000
 18.916     100.000
 18.926     100.000
 18.936     100.000
 18.946     100.000
 18.956     100.000
 18.966     100.000
 18.976     100.000
 18.986     100.000
 18.996     100.000
 19.006     100.000
 19.016     100.000
 19.026     100.000
 19.036     100.000
 19.046     100.000
 19.056     100.000
 19.066     100.000
 19.076     100.000
 19.086     100.000
 19.096     100.000
 19.106     100.000
 19.116     100.000
 19.126     100.000
 19.136     100.000
 19.146     100.000
 19.156     100.000
 19.166     100.000
 19.176     100.000
 19.187     100.000
 19.197     100.000
 19.207     100.000
 19.217     100.000
 19.227     100.000
 19.237     100.000
 19.247     100.000
 19.257     100.000
 19.267     100.000
 19.277     100.000
 19.287     100.000
 19.297     100.000
 19.307     100.000
 19.317     100.000
 19.327     100.000
 19.337     100.000
 19.347     100.000
 19.357     100.000
 19.367     100.000
 19.377     100.000
 19.387     100.000
 19.397     100.000
 19.407     100.000
 19.417     100.000
 19.427     100.000
 19.437     100.000
 19.447     100.000
 19.457     100.000
 19.467     100.000
 19.477     100.000
 19.487     100.000
 19.497     100.000
 19.507     100.000
 19.517     100.000
 19.527     100.000
 19.537     100.000
 19.547     100.000
 19.557     100.000
 19.567     100.000
 19.577     100.000
 19.587     100.000
 19.597     100.000
 19.607     100.000
 19.617     100.000
 19.627     100.000
 19.637     100.000
 19.647     100.000
 19.657     100.000
 19.667     100.000
 19.677     100.000
 19.687     100.000
 19.697     100.000
 19.707     100.000
 19.717     100.000
 19.727     100.000
 19.737     100.000
 19.748     100.000
 19.758     100.000
 19.768     100.000
 19.778     100.000
 19.788     100.000
 19.798     100.000
 19.808     100.000
 19.818     100.000
 19.828     100.000
 19.838     100.000
 19.848     100.000
 19.858     100.000
 19.868     100.000
 19.878     100.000
 19.888     100.000
 19.898     100.000
 19.908     100.000
 19.918     100.000
 19.928     100.000
 19.938     100.000
 19.948     100.000
 19.958     100.000
 19.968     100.000
 19.978     100.000
 19.988     100.000
 19.998     100.000
 20.008     100.000
 20.018     100.000
 20.028     100.000
 20.038     100.000
 20.048     100.000
 20.058     100.000
 20.068     100.000
 20.078     100.000
 20.088     100.000
 20.098     100.000
 20.108     100.000
 20.118     100.000
 20.128     100.000
 20.138     100.000
 20.148     100.000
 20.158     100.000
 20.168     100.000
 20.178     100.000
 20.188     100.000
 20.198     100.000
 20.208     100.000
 20.218     100.000
 20.228     100.000
 20.238     100.000
 20.248     100.000
 20.258     100.000
 20.268     100.000
 20.278     100.000
 20.288     100.000
 20.299     100.000
 20.309     100.000
 20.319     100.000
 20.329     100.000
 20.339     100.000
 20.349     100.000
 20.359     100.000
 20.369     100.000
 20.379     100.000
 20.389     100.000
 20.399     100.000
 20.409     100.000
 20.419     100.000
 20.429     100.000
 20.439     100.000
 20.449     100.000
 20.459     100.000
 20.469     100.000
 20.479     100.000
 20.489     100.000
 20.499     100.000
 20.509     100.000
 20.519     100.000
 20.529     100.000
 20.539     100.000
 20.549     100.000
 20.559     100.000
 20.569     100.000
 20.579     100.000
 20.589     100.000
 20.599     100.000
 20.609     100.000
 20.619     100.000
 20.629     100.000
 20.639     100.000
 20.649     100.000
 20.659     100.000
 20.669     100.000
 20.679     100.000
 20.689     100.000
 20.699     100.000
 20.709     100.000
 20.719     100.000
 20.729     100.022
 20.739     100.062
 20.749     100.163
 20.759     100.409
 20.769     100.974
 20.779     102.208
 20.789     104.765
 20.799     109.783
 20.809     119.115
 20.819     135.544
 20.829     162.883
 20.839     205.862
 20.849     269.598
 20.860     358.524
 20.870     474.990
 20.880     617.579
 20.890     779.817
 20.900     949.614
 20.910    1110.392
 20.920    1243.417
 20.930    1331.249
 20.940    1361.611
 20.950    1330.097
 20.960    1241.279
 20.970    1107.588
 20.980     946.439
 20.990     776.643
 21.000     614.710
 21.010     472.541
 21.020     356.596
 21.030     268.176
 21.040     204.876
 21.050     162.239
 21.060     135.147
 21.070     118.886
 21.080     109.656
 21.090     104.698
 21.100     102.175
 21.110     100.958
 21.120     100.402
 21.130     100.160
 21.140     100.061
 21.150     100.022
 21.160     100.000
 21.170     100.000
 21.180     100.000
 21.190     100.000
 21.200     100.000
 21.210     100.000
 21.220     100.000
 21.230     100.000
 21.240     100.000
 21.250     100.000
 21.260     100.000
 21.270     100.000
 21.280     100.000
 21.290     100.000
 21.300     100.000
 21.310     100.000
 21.320     100.000
 21.330     100.000
 21.340     100.000
 21.350     100.000
 21.360     100.000
 21.370     100.000
 21.380     100.000
 21.390     100.000
 21.400     100.000
 21.411     100.000
 21.421     100.000
 21.431     100.000
 21.441     100.000
 21.451     100.000
 21.461     100.000
 21.471     100.000
 21.481     100.000
 21.491     100.000
 21.501     100.000
 21.511     100.000
 21.521     100.000
 21.531     100.000
 21.541     100.000
 21.551     100.000
 21.561     100.000
 21.571     100.000
 21.581     100.000
 21.591     100.000
 21.601     100.000
 21.611     100.000
 21.621     100.000
 21.631     100.000
 21.641     100.000
 21.651     100.000
 21.661     100.000
 21.671     100.000
 21.681     100.000
 21.691     100.000
 21.701     100.000
 21.711     100.000
 21.721     100.000
 21.731     100.000
 21.741     100.000
 21.751     100.000
 21.761     100.000
 21.771     100.000
 21.781     100.000
 21.791     100.000
 21.801     100.000
 21.811     100.000
 21.821     100.000
 21.831     100.000
 21.841     100.000
 21.851     100.000
 21.861     100.000
 21.871     100.000
 21.881     100.000
 21.891     100.000
 21.901     100.000
 21.911     100.000
 21.921     100.000
 21.931     100.000
 21.941     100.000
 21.951     100.000
 21.961     100.000
 21.972     100.000
 21.982     100.000
 21.992     100.000
 22.002     100.000
 22.012     100.000
 22.022     100.000
 22.032     100.000
 22.042     100.000
 22.052     100.000
 22.062     100.000
 22.072     100.000
 22.082     100.000
 22.092     100.000
 22.102     100.000
 22.112     100.000
 22.122     100.000
 22.132     100.000
 22.142     100.000
 22.152     100.000
 22.162     100.000
 22.172     100.000
 22.182     100.000
 22.192     100.000
 22.202     100.000
 22.212     100.000
 22.222     100.000
 22.232     100.000
 22.242     100.000
 22.252     100.000
 22.262     100.000
 22.272     100.000
 22.282     100.000
 22.292     100.000
 22.302     100.000
 22.312     100.000
 22.322     100.000
 22.332     100.000
 22.342     100.000
 22.352     100.000
 22.362     100.000
 22.372     100.000
 22.382     100.000
 22.392     100.000
 22.402     100.000
 22.412     100.000
 22.422     100.000
 22.432     100.000
 22.442     100.000
 22.452     100.000
 22.462     100.000
 22.472     100.000
 22.482     100.000
 22.492     100.000
 22.502     100.000
 22.512     100.000
 22.522     100.000
 22.533     100.000
 22.543     100.000
 22.553     100.000
 22.563     100.000
 22.573     100.000
 22.583     100.000
 22.593     100.000
 22.603     100.000
 22.613     100.000
 22.623     100.000
 22.633     100.000
 22.643     100.000
 22.653     100.000
 22.663     100.000
 22.673     100.000
 22.683     100.000
 22.693     100.000
 22.703     100.000
 22.713     100.000
 22.723     100.000
 22.733     100.000
 22.743     100.000
 22.753     100.000
 22.763     100.000
 22.773     100.000
 22.783     100.000
 22.793     100.000
 22.803     100.000
 22.813     100.000
 22.823     100.000
 22.833     100.000
 22.843     100.000
 22.853     100.000
 22.863     100.000
 22.873     100.000
 22.883     100.000
 22.893     100.000
 22.903     100.000
 22.913     100.000
 22.923     100.000
 22.933     100.000
 22.943     100.000
 22.953     100.000
 22.963     100.000
 22.973     100.000
 22.983     100.000
 22.993     100.000
 23.003     100.000
 23.013     100.000
 23.023     100.000
 23.033     100.000
 23.043     100.000
 23.053     100.000
 23.063     100.000
 23.073     100.000
 23.084     100.000
 23.094     100.000
 23.104     100.000
 23.114     100.000
 23.124     100.000
 23.134     100.000
 23.144     100.000
 23.154     100.000
 23.164     100.000
 23.174     100.000
 23.184     100.000
 23.194     100.000
 23.204     100.000
 23.214     100.000
 23.224     100.000
 23.234     100.000
 23.244     100.000
 23.254     100.000
 23.264     100.000
 23.274     100.000
 23.284     100.000
 23.294     100.000
 23.304     100.000
 23.314     100.000
 23.324     100.000
 23.334     100.000
 23.344     100.000
 23.354     100.000
 23.364     100.000
 23.374     100.000
 23.384     100.000
 23.394     100.000
 23.404     100.000
 23.414     100.000
 23.424     100.000
 23.434     100.000
 23.444     100.000
 23.454     100.000
 23.464     100.000
 23.474     100.000
 23.484     100.000
 23.494     100.000
 23.504     100.000
 23.514     100.000
 23.524     100.000
 23.534     100.000
 23.544     100.000
 23.554     100.000
 23.564     100.000
 23.574     100.000
 23.584     100.000
 23.594     100.000
 23.604     100.000
 23.614     100.000
 23.624     100.000
 23.634     100.000
 23.645     100.000
 23.655     100.000
 23.665     100.000
 23.675     100.000
 23.685     100.000
 23.695     100.000
 23.705     100.000
 23.715     100.000
 23.725     100.000
 23.735     100.000
 23.745     100.000
 23.755     100.000
 23.765     100.000
 23.775     100.000
 23.785     100.000
 23.795     100.000
 23.805     100.000
 23.815     100.000
 23.825     100.000
 23.835     100.000
 23.845     100.000
 23.855     100.000
 23.865     100.000
 23.875     100.000
 23.885     100.000
 23.895     100.000
 23.905     100.000
 23.915     100.000
 23.925     100.000
 23.935     100.000
 23.945     100.000
 23.955     100.000
 23.965     100.000
 23.975     100.000
 23.985     100.000
 23.995     100.000
 24.005     100.000
 24.015     100.000
 24.025     100.000
 24.035     100.000
 24.045     100.000
 24.055     100.000
 24.065     100.000
 24.075     100.000
 24.085     100.000
 24.095     100.000
 24.105     100.000
 24.115     100.000
 24.125     100.000
 24.135     100.000
 24.145     100.000
 24.155     100.000
 24.165     100.000
 24.175     100.000
 24.185     100.000
 24.196     100.000
 24.206     100.000
 24.216     100.000
 24.226     100.000
 24.236     100.000
 24.246     100.000
 24.256     100.000
 24.266     100.000
 24.276     100.000
 24.286     100.000
 24.296     100.000
 24.306     100.000
 24.316     100.000
 24.326     100.000
 24.336     100.000
 24.346     100.000
 24.356     100.000
 24.366     100.000
 24.376     100.000
 24.386     100.000
 24.396     100.000
 24.406     100.000
 24.416     100.000
 24.426     100.000
 24.436     100.000
 24.446     100.000
 24.456     100.000
 24.466     100.000
 24.476     100.000
 24.486     100.000
 24.496     100.000
 24.506     100.000
 24.516     100.000
 24.526     100.000
 24.536     100.000
 24.546     100.000
 24.556     100.000
 24.566     100.000
 24.576     100.000
 24.586     100.000
 24.596     100.000
 24.606     100.000
 24.616     100.000
 24.626     100.000
 24.636     100.000
 24.646     100.000
 24.656     100.000
 24.666     100.000
 24.676     100.000
 24.686     100.000
 24.696     100.000
 24.706     100.000
 24.716     100.000
 24.726     100.000
 24.736     100.000
 24.746     100.000
 24.757     100.000
 24.767     100.000
 24.777     100.000
 24.787     100.000
 24.797     100.000
 24.807     100.000
 24.817     100.000
 24.827     100.000
 24.837     100.000
 24.847     100.000
 24.857     100.000
 24.867     100.000
 24.877     100.000
 24.887     100.000
 24.897     100.000
 24.907     100.000
 24.917     100.000
 24.927     100.000
 24.937     100.000
 24.947     100.000
 24.957     100.000
 24.967     100.000
 24.977     100.000
 24.987     100.000
 24.997     100.000
 25.007     100.000
 25.017     100.000
 25.027     100.000
 25.037     100.000
 25.047     100.000
 25.057     100.000
 25.067     100.000
 25.077     100.000
 25.087     100.000
 25.097     100.000
 25.107     100.000
 25.117     100.000
 25.127     100.000
 25.137     100.000
 25.147     100.000
 25.157     100.000
 25.167     100.000
 25.177     100.000
 25.187     100.000
 25.197     100.000
 25.207     100.000
 25.217     100.000
 25.227     100.000
 25.237     100.000
 25.247     100.000
 25.257     100.000
 25.267     100.000
 25.277     100.000
 25.287     100.000
 25.297     100.000
 25.308     100.000
 25.318     100.000
 25.328     100.000
 25.338     100.000
 25.348     100.000
 25.358     100.000
 25.368     100.000
 25.378     100.000
 25.388     100.000
 25.398     100.000
 25.408     100.000
 25.418     100.000
 25.428     100.000
 25.438     100.000
 25.448     100.000
 25.458     100.000
 25.468     100.000
 25.478     100.000
 25.488     100.000
 25.498     100.000
 25.508     100.000
 25.518     100.000
 25.528     100.000
 25.538     100.000
 25.548     100.000
 25.558     100.000
 25.568     100.000
 25.578     100.000
 25.588     100.000
 25.598     100.000
 25.608     100.000
 25.618     100.000
 25.628     100.000
 25.638     100.000
 25.648     100.000
 25.658     100.000
 25.668     100.000
 25.678     100.000
 25.688     100.000
 25.698     100.000
 25.708     100.000
 25.718     100.000
 25.728     100.000
 25.738     100.000
 25.748     100.000
 25.758     100.000
 25.768     100.000
 25.778     100.000
 25.788     100.000
 25.798     100.000
 25.808     100.000
 25.818     100.000
 25.828     100.000
 25.838     100.000
 25.848     100.000
 25.858     100.000
 25.869     100.000
 25.879     100.000
 25.889     100.000
 25.899     100.000
 25.909     100.000
 25.919     100.000
 25.929     100.000
 25.939     100.000
 25.949     100.000
 25.959     100.000
 25.969     100.000
 25.979     100.000
 25.989     100.000
 25.999     100.000
 26.009     100.000
 26.019     100.000
 26.029     100.000
 26.039     100.000
 26.049     100.000
 26.059     100.000
 26.069     100.000
 26.079     100.000
 26.089     100.000
 26.099     100.000
 26.109     100.000
 26.119     100.000
 26.129     100.000
 26.139     100.000
 26.149     100.000
 26.159     100.000
 26.169     100.000
 26.179     100.000
 26.189     100.000
 26.199     100.000
 26.209     100.000
 26.219     100.000
 26.229     100.000
 26.239     100.000
 26.249     100.000
 26.259     100.000
 26.269     100.000
 26.279     100.000
 26.289     100.000
 26.299     100.000
 26.309     100.000
 26.319     100.000
 26.329     100.000
 26.339     100.000
 26.349     100.000
 26.359     100.000
 26.369     100.000
 26.379     100.000
 26.389     100.000
 26.399     100.000
 26.409     100.000
 26.420     100.000
 26.430     100.000
 26.440     100.000
 26.450     100.000
 26.460     100.000
 26.470     100.000
 26.480     100.000
 26.490     100.000
 26.500     100.000
 26.510     100.000
 26.520     100.000
 26.530     100.000
 26.540     100.000
 26.550     100.000
 26.560     100.000
 26.570     100.000
 26.580     100.000
 26.590     100.000
 26.600     100.000
 26.610     100.000
 26.620     100.000
 26.630     100.000
 26.640     100.000
 26.650     100.000
 26.660     100.000
 26.670     100.000
 26.680     100.000
 26.690     100.000
 26.700     100.000
 26.710     100.000
 26.720     100.000
 26.730     100.000
 26.740     100.000
 26.750     100.000
 26.760     100.000
 26.770     100.000
 26.780     100.000
 26.790     100.000
 26.800     100.000
 26.810     100.000
 26.820     100.000
 26.830     100.000
 26.840     100.000
 26.850     100.000
 26.860     100.000
 26.870     100.000
 26.880     100.000
 26.890     100.000
 26.900     100.000
 26.910     100.000
 26.920     100.000
 26.930     100.000
 26.940     100.000
 26.950     100.000
 26.960     100.000
 26.970     100.000
 26.981     100.000
 26.991     100.000
 27.001     100.000
 27.011     100.000
 27.021     100.000
 27.031     100.000
 27.041     100.000
 27.051     100.000
 27.061     100.000
 27.071     100.000
 27.081     100.000
 27.091     100.000
 27.101     100.000
 27.111     100.000
 27.121     100.000
 27.131     100.000
 27.141     100.000
 27.151     100.000
 27.161     100.000
 27.171     100.000
 27.181     100.000
 27.191     100.000
 27.201     100.000
 27.211     100.000
 27.221     100.000
 27.231     100.000
 27.241     100.000
 27.251     100.000
 27.261     100.000
 27.271     100.000
 27.281     100.000
 27.291     100.000
 27.301     100.000
 27.311     100.000
 27.321     100.000
 27.331     100.000
 27.341     100.000
 27.351     100.000
 27.361     100.000
 27.371     100.000
 27.381     100.000
 27.391     100.000
 27.401     100.000
 27.411     100.000
 27.421     100.000
 27.431     100.000
 27.441     100.000
 27.451     100.000
 27.461     100.000
 27.471     100.000
 27.481     100.000
 27.491     100.000
 27.501     100.000
 27.511     100.000
 27.521     100.000
 27.531     100.000
 27.542     100.000
 27.552     100.000
 27.562     100.000
 27.572     100.000
 27.582     100.000
 27.592     100.000
 27.602     100.000
 27.612     100.000
 27.622     100.000
 27.632     100.000
 27.642     100.000
 27.652     100.000
 27.662     100.000
 27.672     100.000
 27.682     100.000
 27.692     100.000
 27.702     100.000
 27.712     100.000
 27.722     100.000
 27.732     100.000
 27.742     100.000
 27.752     100.000
 27.762     100.000
 27.772     100.000
 27.782     100.000
 27.792     100.000
 27.802     100.000
 27.812     100.000
 27.822     100.000
 27.832     100.000
 27.842     100.000
 27.852     100.000
 27.862     100.000
 27.872     100.000
 27.882     100.000
 27.892     100.000
 27.902     100.000
 27.912     100.000
 27.922     100.000
 27.932     100.000
 27.942     100.000
 27.952     100.000
 27.962     100.000
 27.972     100.000
 27.982     100.000
 27.992     100.000
 28.002     100.000
 28.012     100.000
 28.022     100.000
 28.032     100.000
 28.042     100.000
 28.052     100.000
 28.062     100.000
 28.072     100.000
 28.082     100.000
 28.093     100.000
 28.103     100.000
 28.113     100.000
 28.123     100.000
 28.133     100.000
 28.143     100.000
 28.153     100.000
 28.163     100.000
 28.173     100.000
 28.183     100.000
 28.193     100.000
 28.203     100.000
 28.213     100.000
 28.223     100.000
 28.233     100.000
 28.243     100.000
 28.253     100.000
 28.263     100.000
 28.273     100.000
 28.283     100.000
 28.293     100.000
 28.303     100.000
 28.313     100.000
 28.323     100.000
 28.333     100.000
 28.343     100.000
 28.353     100.000
 28.363     100.000
 28.373     100.000
 28.383     100.000
 28.393     100.000
 28.403     100.000
 28.413     100.000
 28.423     100.000
 28.433     100.000
 28.443     100.000
 28.453     100.000
 28.463     100.000
 28.473     100.000
 28.483     100.000
 28.493     100.000
 28.503     100.000
 28.513     100.000
 28.523     100.000
 28.533     100.000
 28.543     100.000
 28.553     100.000
 28.563     100.000
 28.573     100.000
 28.583     100.000
 28.593     100.000
 28.603     100.000
 28.613     100.000
 28.623     100.000
 28.633     100.000
 28.643     100.000
 28.654     100.000
 28.664     100.000
 28.674     100.000
 28.684     100.000
 28.694     100.000
 28.704     100.000
 28.714     100.000
 28.724     100.000
 28.734     100.000
 28.744     100.000
 28.754     100.000
 28.764     100.000
 28.774     100.000
 28.784     100.000
 28.794     100.000
 28.804     100.000
 28.814     100.000
 28.824     100.000
 28.834     100.000
 28.844     100.000
 28.854     100.000
 28.864     100.000
 28.874     100.000
 28.884     100.000
 28.894     100.000
 28.904     100.000
 28.914     100.000
 28.924     100.000
 28.934     100.000
 28.944     100.000
 28.954     100.000
 28.964     100.000
 28.974     100.000
 28.984     100.000
 28.994     100.000
 29.004     100.000
 29.014     100.000
 29.024     100.000
 29.034     100.000
 29.044     100.000
 29.054     100.000
 29.064     100.000
 29.074     100.000
 29.084     100.000
 29.094     100.000
 29.104     100.000
 29.114     100.000
 29.124     100.000
 29.134     100.000
 29.144     100.000
 29.154     100.000
 29.164     100.000
 29.174     100.000
 29.184     100.000
 29.194     100.000
 29.205     100.000
 29.215     100.000
 29.225     100.000
 29.235     100.000
 29.245     100.000
 29.255     100.000
 29.265     100.000
 29.275     100.000
 29.285     100.000
 29.295     100.000
 29.305     100.000
 29.315     100.000
 29.325     100.000
 29.335     100.000
 29.345     100.000
 29.355     100.000
 29.365     100.000
 29.375     100.000
 29.385     100.000
 29.395     100.000
 29.405     100.000
 29.415     100.000
 29.425     100.000
 29.435     100.000
 29.445     100.000
 29.455     100.000
 29.465     100.000
 29.475     100.000
 29.485     100.007
 29.495     100.014
 29.505     100.028
 29.515     100.054
 29.525     100.100
 29.535     100.184
 29.545     100.329
 29.555     100.573
 29.565     100.976
 29.575     101.624
 29.585     102.636
 29.595     104.179
 29.605     106.467
 29.615     109.771
 29.625     114.413
 29.635     120.758
 29.645     129.185
 29.655     140.062
 29.665     153.693
 29.675     170.253
 29.685     189.742
 29.695     211.926
 29.705     236.282
 29.715     262.006
 29.725     288.027
 29.735     313.053
 29.745     335.689
 29.755     354.554
 29.766     368.418
 29.776     376.328
 29.786     377.732
 29.796     372.528
 29.806     361.087
 29.816     344.200
 29.826     322.990
 29.836     298.801
 29.846     273.038
 29.856     247.040
 29.866     221.991
 29.876     198.812
 29.886     178.137
 29.896     160.327
 29.906     145.473
 29.916     133.462
 29.926     124.042
 29.936     116.864
 29.946     111.549
 29.956     107.722
 29.966     105.040
 29.976     103.212
 29.986     101.999
 29.996     101.214
 30.006     100.720
 30.016     100.417
 30.026     100.236
 30.036     100.130
 30.046     100.070
 30.056     100.037
 30.066     100.019
 30.076     100.009
 30.086     100.005
 30.096     100.000
 30.106     100.000
 30.116     100.000
 30.126     100.000
 30.136     100.000
 30.146     100.000
 30.156     100.000
 30.166     100.000
 30.176     100.000
 30.186     100.000
 30.196     100.000
 30.206     100.000
 30.216     100.000
 30.226     100.000
 30.236     100.000
 30.246     100.000
 30.256     100.000
 30.266     100.000
 30.276     100.000
 30.286     100.000
 30.296     100.000
 30.306     100.000
 30.317     100.000
 30.327     100.000
 30.337     100.000
 30.347     100.000
 30.357     100.000
 30.367     100.000
 30.377     100.000
 30.387     100.000
 30.397     100.000
 30.407     100.000
 30.417     100.000
 30.427     100.000
 30.437     100.000
 30.447     100.000
 30.457     100.000
 30.467     100.000
 30.477     100.000
 30.487     100.000
 30.497     100.000
 30.507     100.000
 30.517     100.000
 30.527     100.000
 30.537     100.000
 30.547     100.000
 30.557     100.000
 30.567     100.000
 30.577     100.000
 30.587     100.000
 30.597     100.000
 30.607     100.000
 30.617     100.000
 30.627     100.000
 30.637     100.000
 30.647     100.000
 30.657     100.000
 30.667     100.000
 30.677     100.000
 30.687     100.000
 30.697     100.000
 30.707     100.000
 30.717     100.000
 30.727     100.000
 30.737     100.000
 30.747     100.000
 30.757     100.000
 30.767     100.000
 30.777     100.000
 30.787     100.000
 30.797     100.000
 30.807     100.000
 30.817     100.000
 30.827     100.000
 30.837     100.000
 30.847     100.000
 30.857     100.000
 30.867     100.000
 30.878     100.000
 30.888     100.000
 30.898     100.000
 30.908     100.000
 30.918     100.000
 30.928     100.000
 30.938     100.000
 30.948     100.000
 30.958     100.000
 30.968     100.000
 30.978     100.000
 30.988     100.000
 30.998     100.000
 31.008     100.000
 31.018     100.000
 31.028     100.000
 31.038     100.000
 31.048     100.000
 31.058     100.000
 31.068     100.000
 31.078     100.000
 31.088     100.000
 31.098     100.000
 31.108     100.000
 31.118     100.000
 31.128     100.000
 31.138     100.000
 31.148     100.000
 31.158     100.000
 31.168     100.000
 31.178     100.000
 31.188     100.000
 31.198     100.000
 31.208     100.000
 31.218     100.000
 31.228     100.000
 31.238     100.000
 31.248     100.000
 31.258     100.000
 31.268     100.000
 31.278     100.000
 31.288     100.000
 31.298     100.000
 31.308     100.000
 31.318     100.000
 31.328     100.000
 31.338     100.000
 31.348     100.000
 31.358     100.000
 31.368     100.000
 31.378     100.000
 31.388     100.000
 31.398     100.000
 31.408     100.000
 31.418     100.000
 31.429     100.000
 31.439     100.000
 31.449     100.000
 31.459     100.000
 31.469     100.000
 31.479     100.000
 31.489     100.000
 31.499     100.000
 31.509     100.000
 31.519     100.000
 31.529     100.000
 31.539     100.000
 31.549     100.000
 31.559     100.000
 31.569     100.000
 31.579     100.000
 31.589     100.000
 31.599     100.000
 31.609     100.000
 31.619     100.000
 31.629     100.000
 31.639     100.000
 31.649     100.000
 31.659     100.000
 31.669     100.000
 31.679     100.000
 31.689     100.000
 31.699     100.000
 31.709     100.000
 31.719     100.000
 31.729     100.000
 31.739     100.000
 31.749     100.000
 31.759     100.000
 31.769     100.000
 31.779     100.000
 31.789     100.000
 31.799     100.000
 31.809     100.000
 31.819     100.000
 31.829     100.000
 31.839     100.000
 31.849     100.000
 31.859     100.000
 31.869     100.000
 31.879     100.000
 31.889     100.000
 31.899     100.000
 31.909     100.000
 31.919     100.000
 31.929     100.000
 31.939     100.000
 31.949     100.000
 31.959     100.000
 31.969     100.000
 31.979     100.000
 31.990     100.000
 32.000     100.000
 32.010     100.000
 32.020     100.000
 32.030     100.000
 32.040     100.000
 32.050     100.000
 32.060     100.000
 32.070     100.000
 32.080     100.000
 32.090     100.000
 32.100     100.000
 32.110     100.000
 32.120     100.000
 32.130     100.000
 32.140     100.000
 32.150     100.000
 32.160     100.000
 32.170     100.000
 32.180     100.000
 32.190     100.000
 32.200     100.000
 32.210     100.000
 32.220     100.000
 32.230     100.000
 32.240     100.000
 32.250     100.000
 32.260     100.000
 32.270     100.000
 32.280     100.000
 32.290     100.000
 32.300     100.000
 32.310     100.000
 32.320     100.000
 32.330     100.000
 32.340     100.000
 32.350     100.000
 32.360     100.000
 32.370     100.000
 32.380     100.000
 32.390     100.000
 32.400     100.000
 32.410     100.000
 32.420     100.000
 32.430     100.000
 32.440     100.000
 32.450     100.000
 32.460     100.000
 32.470     100.000
 32.480     100.000
 32.490     100.000
 32.500     100.000
 32.510     100.000
 32.520     100.000
 32.530     100.000
 32.541     100.000
 32.551     100.000
 32.561     100.000
 32.571     100.000
 32.581     100.000
 32.591     100.000
 32.601     100.000
 32.611     100.000
 32.621     100.000
 32.631     100.000
 32.641     100.000
 32.651     100.000
 32.661     100.000
 32.671     100.000
 32.681     100.000
 32.691     100.000
 32.701     100.000
 32.711     100.000
 32.721     100.000
 32.731     100.000
 32.741     100.000
 32.751     100.000
 32.761     100.000
 32.771     100.000
 32.781     100.000
 32.791     100.000
 32.801     100.000
 32.811     100.000
 32.821     100.000
 32.831     100.000
 32.841     100.000
 32.851     100.000
 32.861     100.000
 32.871     100.000
 32.881     100.000
 32.891     100.000
 32.901     100.000
 32.911     100.000
 32.921     100.000
 32.931     100.000
 32.941     100.000
 32.951     100.000
 32.961     100.000
 32.971     100.000
 32.981     100.000
 32.991     100.000
 33.001     100.000
 33.011     100.000
 33.021     100.000
 33.031     100.000
 33.041     100.000
 33.051     100.000
 33.061     100.000
 33.071     100.000
 33.081     100.000
 33.091     100.000
 33.102     100.000
 33.112     100.000
 33.122     100.000
 33.132     100.000
 33.142     100.000
 33.152     100.000
 33.162     100.000
 33.172     100.000
 33.182     100.000
 33.192     100.000
 33.202     100.000
 33.212     100.000
 33.222     100.000
 33.232     100.000
 33.242     100.000
 33.252     100.000
 33.262     100.000
 33.272     100.000
 33.282     100.000
 33.292     100.000
 33.302     100.000
 33.312     100.000
 33.322     100.000
 33.332     100.000
 33.342     100.000
 33.352     100.000
 33.362     100.000
 33.372     100.000
 33.382     100.000
 33.392     100.000
 33.402     100.000
 33.412     100.000
 33.422     100.000
 33.432     100.000
 33.442     100.000
 33.452     100.000
 33.462     100.000
 33.472     100.000
 33.482     100.000
 33.492     100.000
 33.502     100.000
 33.512     100.000
 33.522     100.000
 33.532     100.000
 33.542     100.000
 33.552     100.000
 33.562     100.000
 33.572     100.000
 33.582     100.000
 33.592     100.000
 33.602     100.000
 33.612     100.000
 33.622     100.000
 33.632     100.000
 33.642     100.000
 33.652     100.000
 33.663     100.000
 33.673     100.000
 33.683     100.000
 33.693     100.000
 33.703     100.000
 33.713     100.000
 33.723     100.000
 33.733     100.000
 33.743     100.000
 33.753     100.000
 33.763     100.000
 33.773     100.000
 33.783     100.000
 33.793     100.000
 33.803     100.000
 33.813     100.000
 33.823     100.000
 33.833     100.000
 33.843     100.000
 33.853     100.000
 33.863     100.000
 33.873     100.000
 33.883     100.000
 33.893     100.000
 33.903     100.000
 33.913     100.000
 33.923     100.000
 33.933     100.000
 33.943     100.000
 33.953     100.000
 33.963     100.000
 33.973     100.000
 33.983     100.000
 33.993     100.000
 34.003     100.000
 34.013     100.000
 34.023     100.000
 34.033     100.000
 34.043     100.000
 34.053     100.000
 34.063     100.000
 34.073     100.000
 34.083     100.000
 34.093     100.000
 34.103     100.000
 34.113     100.000
 34.123     100.000
 34.133     100.000
 34.143     100.000
 34.153     100.000
 34.163     100.000
 34.173     100.000
 34.183     100.000
 34.193     100.000
 34.203     100.000
 34.214     100.000
 34.224     100.000
 34.234     100.000
 34.244     100.000
 34.254     100.000
 34.264     100.000
 34.274     100.000
 34.284     100.000
 34.294     100.000
 34.304     100.000
 34.314     100.000
 34.324     100.000
 34.334     100.000
 34.344     100.000
 34.354     100.000
 34.364     100.000
 34.374     100.000
 34.384     100.000
 34.394     100.000
 34.404     100.000
 34.414     100.000
 34.424     100.000
 34.434     100.000
 34.444     100.000
 34.454     100.000
 34.464     100.000
 34.474     100.000
 34.484     100.000
 34.494     100.000
 34.504     100.000
 34.514     100.000
 34.524     100.000
 34.534     100.000
 34.544     100.000
 34.554     100.000
 34.564     100.000
 34.574     100.000
 34.584     100.000
 34.594     100.000
 34.604     100.000
 34.614     100.000
 34.624     100.000
 34.634     100.000
 34.644     100.000
 34.654     100.000
 34.664     100.000
 34.674     100.000
 34.684     100.000
 34.694     100.000
 34.704     100.000
 34.714     100.000
 34.724     100.000
 34.734     100.000
 34.744     100.000
 34.754     100.000
 34.764     100.000
 34.775     100.000
 34.785     100.000
 34.795     100.000
 34.805     100.000
 34.815     100.000
 34.825     100.000
 34.835     100.000
 34.845     100.000
 34.855     100.000
 34.865     100.000
 34.875     100.000
 34.885     100.000
 34.895     100.000
 34.905     100.000
 34.915     100.000
 34.925     100.000
 34.935     100.000
 34.945     100.000
 34.955     100.000
 34.965     100.000
 34.975     100.000
 34.985     100.000
 34.995     100.000
 35.005     100.000
 35.015     100.000
 35.025     100.000
 35.035     100.000
 35.045     100.000
 35.055     100.000
 35.065     100.000
 35.075     100.000
 35.085     100.000
 35.095     100.000
 35.105     100.000
 35.115     100.000
 35.125     100.000
 35.135     100.000
 35.145     100.000
 35.155     100.000
 35.165     100.000
 35.175     100.000
 35.185     100.000
 35.195     100.000
 35.205     100.000
 35.215     100.000
 35.225     100.000
 35.235     100.000
 35.245     100.000
 35.255     100.000
 35.265     100.000
 35.275     100.000
 35.285     100.000
 35.295     100.000
 35.305     100.000
 35.315     100.000
 35.326     100.000
 35.336     100.000
 35.346     100.000
 35.356     100.000
 35.366     100.000
 35.376     100.000
 35.386     100.000
 35.396     100.000
 35.406     100.000
 35.416     100.000
 35.426     100.000
 35.436     100.000
 35.446     100.000
 35.456     100.000
 35.466     100.000
 35.476     100.000
 35.486     100.000
 35.496     100.000
 35.506     100.000
 35.516     100.000
 35.526     100.000
 35.536     100.000
 35.546     100.000
 35.556     100.000
 35.566     100.000
 35.576     100.000
 35.586     100.000
 35.596     100.000
 35.606     100.000
 35.616     100.000
 35.626     100.000
 35.636     100.000
 35.646     100.000
 35.656     100.000
 35.666     100.000
 35.676     100.000
 35.686     100.000
 35.696     100.000
 35.706     100.000
 35.716     100.000
 35.726     100.000
 35.736     100.000
 35.746     100.000
 35.756     100.000
 35.766     100.000
 35.776     100.000
 35.786     100.000
 35.796     100.000
 35.806     100.000
 35.816     100.000
 35.826     100.000
 35.836     100.000
 35.846     100.000
 35.856     100.000
 35.866     100.000
 35.876     100.000
 35.887     100.000
 35.897     100.000
 35.907     100.000
 35.917     100.000
 35.927     100.000
 35.937     100.000
 35.947     100.000
 35.957     100.000
 35.967     100.000
 35.977     100.000
 35.987     100.000
 35.997     100.000
 36.007     100.000
 36.017     100.000
 36.027     100.000
 36.037     100.000
 36.047     100.000
 36.057     100.000
 36.067     100.000
 36.077     100.000
 36.087     100.000
 36.097     100.000
 36.107     100.000
 36.117     100.000
 36.127     100.000
 36.137     100.000
 36.147     100.000
 36.157     100.000
 36.167     100.000
 36.177     100.000
 36.187     100.000
 36.197     100.000
 36.207     100.000
 36.217     100.000
 36.227     100.000
 36.237     100.000
 36.247     100.000
 36.257     100.000
 36.267     100.000
 36.277     100.000
 36.287     100.000
 36.297     100.000
 36.307     100.000
 36.317     100.015
 36.327     100.026
 36.337     100.045
 36.347     100.077
 36.357     100.130
 36.367     100.215
 36.377     100.351
 36.387     100.564
 36.397     100.892
 36.407     101.390
 36.417     102.133
 36.427     103.223
 36.438     104.796
 36.448     107.027
 36.458     110.136
 36.468     114.398
 36.478     120.140
 36.488     127.740
 36.498     137.623
 36.508     150.252
 36.518     166.086
 36.528     185.579
 36.538     209.126
 36.548     237.024
 36.558     269.420
 36.568     306.286
 36.578     347.312
 36.588     391.960
 36.598     439.394
 36.608     488.499
 36.618     537.905
 36.628     586.059
 36.638     631.231
 36.648     671.717
 36.658     705.874
 36.668     732.249
 36.678     749.676
 36.688     757.370
 36.698     754.974
 36.708     742.602
 36.718     720.817
 36.728     690.593
 36.738     653.244
 36.748     610.328
 36.758     563.520
 36.768     514.577
 36.778     465.129
 36.788     416.659
 36.798     370.421
 36.808     327.401
 36.818     288.285
 36.828     253.522
 36.838     223.263
 36.848     197.453
 36.858     175.869
 36.868     158.162
 36.878     143.900
 36.888     132.632
 36.898     123.885
 36.908     117.215
 36.918     112.218
 36.928     108.539
 36.938     105.876
 36.948     103.981
 36.958     102.657
 36.968     101.745
 36.978     101.129
 36.988     100.720
 36.999     100.451
 37.009     100.279
 37.019     100.170
 37.029     100.102
 37.039     100.060
 37.049     100.035
 37.059     100.020
 37.069     100.011
 37.079     100.000
 37.089     100.000
 37.099     100.000
 37.109     100.000
 37.119     100.000
 37.129     100.000
 37.139     100.000
 37.149     100.000
 37.159     100.000
 37.169     100.000
 37.179     100.000
 37.189     100.000
 37.199     100.000
 37.209     100.000
 37.219     100.000
 37.229     100.000
 37.239     100.000
 37.249     100.000
 37.259     100.000
 37.269     100.000
 37.279     100.000
 37.289     100.000
 37.299     100.000
 37.309     100.000
 37.319     100.000
 37.329     100.000
 37.339     100.000
 37.349     100.000
 37.359     100.000
 37.369     100.000
 37.379     100.000
 37.389     100.000
 37.399     100.000
 37.409     100.000
 37.419     100.000
 37.429     100.000
 37.439     100.000
 37.449     100.000
 37.459     100.000
 37.469     100.000
 37.479     100.000
 37.489     100.000
 37.499     100.000
 37.509     100.000
 37.519     100.000
 37.529     100.000
 37.539     100.000
 37.549     100.000
 37.560     100.000
 37.570     100.000
 37.580     100.000
 37.590     100.000
 37.600     100.000
 37.610     100.000
 37.620     100.000
 37.630     100.000
 37.640     100.000
 37.650     100.000
 37.660     100.000
 37.670     100.000
 37.680     100.000
 37.690     100.000
 37.700     100.000
 37.710     100.000
 37.720     100.000
 37.730     100.000
 37.740     100.000
 37.750     100.000
 37.760     100.000
 37.770     100.000
 37.780     100.000
 37.790     100.000
 37.800     100.000
 37.810     100.000
 37.820     100.000
 37.830     100.000
 37.840     100.000
 37.850     100.000
 37.860     100.000
 37.870     100.000
 37.880     100.000
 37.890     100.000
 37.900     100.000
 37.910     100.000
 37.920     100.000
 37.930     100.000
 37.940     100.000
 37.950     100.000
 37.960     100.000
 37.970     100.000
 37.980     100.000
 37.990     100.000
 38.000     100.000
 38.010     100.000
 38.020     100.000
 38.030     100.000
 38.040     100.000
 38.050     100.000
 38.060     100.000
 38.070     100.000
 38.080     100.000
 38.090     100.000
 38.100     100.000
 38.111     100.000
 38.121     100.000
 38.131     100.000
 38.141     100.000
 38.151     100.000
 38.161     100.000
 38.171     100.000
 38.181     100.000
 38.191     100.000
 38.201     100.000
 38.211     100.000
 38.221     100.000
 38.231     100.000
 38.241     100.000
 38.251     100.000
 38.261     100.000
 38.271     100.000
 38.281     100.000
 38.291     100.000
 38.301     100.000
 38.311     100.000
 38.321     100.000
 38.331     100.000
 38.341     100.000
 38.351     100.000
 38.361     100.000
 38.371     100.000
 38.381     100.000
 38.391     100.000
 38.401     100.000
 38.411     100.000
 38.421     100.000
 38.431     100.000
 38.441     100.000
 38.451     100.000
 38.461     100.000
 38.471     100.000
 38.481     100.000
 38.491     100.000
 38.501     100.000
 38.511     100.000
 38.521     100.000
 38.531     100.000
 38.541     100.000
 38.551     100.000
 38.561     100.000
 38.571     100.000
 38.581     100.000
 38.591     100.000
 38.601     100.000
 38.611     100.000
 38.621     100.000
 38.631     100.000
 38.641     100.000
 38.651     100.000
 38.661     100.000
 38.672     100.000
 38.682     100.000
 38.692     100.000
 38.702     100.000
 38.712     100.000
 38.722     100.000
 38.732     100.000
 38.742     100.000
 38.752     100.000
 38.762     100.000
 38.772     100.000
 38.782     100.000
 38.792     100.000
 38.802     100.000
 38.812     100.000
 38.822     100.000
 38.832     100.000
 38.842     100.000
 38.852     100.000
 38.862     100.000
 38.872     100.000
 38.882     100.000
 38.892     100.000
 38.902     100.000
 38.912     100.000
 38.922     100.000
 38.932     100.000
 38.942     100.000
 38.952     100.000
 38.962     100.000
 38.972     100.000
 38.982     100.000
 38.992     100.000
 39.002     100.000
 39.012     100.000
 39.022     100.000
 39.032     100.000
 39.042     100.000
 39.052     100.000
 39.062     100.000
 39.072     100.000
 39.082     100.000
 39.092     100.000
 39.102     100.000
 39.112     100.000
 39.122     100.000
 39.132     100.000
 39.142     100.000
 39.152     100.000
 39.162     100.000
 39.172     100.000
 39.182     100.000
 39.192     100.000
 39.202     100.000
 39.212     100.000
 39.223     100.000
 39.233     100.000
 39.243     100.000
 39.253     100.000
 39.263     100.000
 39.273     100.000
 39.283     100.000
 39.293     100.000
 39.303     100.000
 39.313     100.000
 39.323     100.000
 39.333     100.000
 39.343     100.000
 39.353     100.000
 39.363     100.000
 39.373     100.000
 39.383     100.000
 39.393     100.000
 39.403     100.000
 39.413     100.000
 39.423     100.000
 39.433     100.000
 39.443     100.000
 39.453     100.000
 39.463     100.000
 39.473     100.000
 39.483     100.000
 39.493     100.000
 39.503     100.000
 39.513     100.000
 39.523     100.000
 39.533     100.000
 39.543     100.000
 39.553     100.000
 39.563     100.000
 39.573     100.000
 39.583     100.000
 39.593     100.000
 39.603     100.000
 39.613     100.000
 39.623     100.000
 39.633     100.000
 39.643     100.000
 39.653     100.000
 39.663     100.000
 39.673     100.000
 39.683     100.000
 39.693     100.000
 39.703     100.000
 39.713     100.000
 39.723     100.000
 39.733     100.000
 39.743     100.000
 39.753     100.000
 39.763     100.000
 39.773     100.000
 39.784     100.000
 39.794     100.000
 39.804     100.000
 39.814     100.000
 39.824     100.000
 39.834     100.000
 39.844     100.000
 39.854     100.000
 39.864     100.000
 39.874     100.000
 39.884     100.000
 39.894     100.000
 39.904     100.000
 39.914     100.000
 39.924     100.000
 39.934     100.000
 39.944     100.000
 39.954     100.000
 39.964     100.000
 39.974     100.000
 39.984     100.000
 39.994     100.000
 40.004     100.000
 40.014     100.000
 40.024     100.000
 40.034     100.000
 40.044     100.000
 40.054     100.000
 40.064     100.000
 40.074     100.000
 40.084     100.000
 40.094     100.000
 40.104     100.000
 40.114     100.000
 40.124     100.000
 40.134     100.000
 40.144     100.000
 40.154     100.000
 40.164     100.000
 40.174     100.000
 40.184     100.000
 40.194     100.000
 40.204     100.000
 40.214     100.000
 40.224     100.000
 40.234     100.000
 40.244     100.000
 40.254     100.000
 40.264     100.000
 40.274     100.000
 40.284     100.000
 40.294     100.000
 40.304     100.000
 40.314     100.000
 40.324     100.000
 40.335     100.000
 40.345     100.000
 40.355     100.000
 40.365     100.000
 40.375     100.000
 40.385     100.000
 40.395     100.000
 40.405     100.000
 40.415     100.000
 40.425     100.000
 40.435     100.000
 40.445     100.000
 40.455     100.000
 40.465     100.000
 40.475     100.000
 40.485     100.000
 40.495     100.000
 40.505     100.000
 40.515     100.000
 40.525     100.000
 40.535     100.000
 40.545     100.000
 40.555     100.000
 40.565     100.000
 40.575     100.000
 40.585     100.000
 40.595     100.000
 40.605     100.000
 40.615     100.000
 40.625     100.000
 40.635     100.000
 40.645     100.000
 40.655     100.000
 40.665     100.000
 40.675     100.000
 40.685     100.000
 40.695     100.000
 40.705     100.000
 40.715     100.000
 40.725     100.000
 40.735     100.000
 40.745     100.000
 40.755     100.000
 40.765     100.000
 40.775     100.000
 40.785     100.000
 40.795     100.000
 40.805     100.000
 40.815     100.000
 40.825     100.000
 40.835     100.000
 40.845     100.000
 40.855     100.000
 40.865     100.000
 40.875     100.000
 40.885     100.000
 40.896     100.000
 40.906     100.000
 40.916     100.000
 40.926     100.000
 40.936     100.000
 40.946     100.000
 40.956     100.000
 40.966     100.000
 40.976     100.000
 40.986     100.000
 40.996     100.000
 41.006     100.000
 41.016     100.000
 41.026     100.000
 41.036     100.000
 41.046     100.000
 41.056     100.000
 41.066     100.000
 41.076     100.000
 41.086     100.000
 41.096     100.000
 41.106     100.000
 41.116     100.000
 41.126     100.000
 41.136     100.000
 41.146     100.000
 41.156     100.000
 41.166     100.000
 41.176     100.000
 41.186     100.000
 41.196     100.000
 41.206     100.000
 41.216     100.000
 41.226     100.000
 41.236     100.000
 41.246     100.000
 41.256     100.000
 41.266     100.000
 41.276     100.000
 41.286     100.000
 41.296     100.000
 41.306     100.000
 41.316     100.000
 41.326     100.000
 41.336     100.000
 41.346     100.000
 41.356     100.000
 41.366     100.000
 41.376     100.000
 41.386     100.000
 41.396     100.000
 41.406     100.000
 41.416     100.000
 41.426     100.000
 41.436     100.000
 41.447     100.000
 41.457     100.000
 41.467     100.000
 41.477     100.000
 41.487     100.000
 41.497     100.000
 41.507     100.000
 41.517     100.000
 41.527     100.000
 41.537     100.000
 41.547     100.000
 41.557     100.000
 41.567     100.000
 41.577     100.000
 41.587     100.000
 41.597     100.000
 41.607     100.000
 41.617     100.000
 41.627     100.000
 41.637     100.000
 41.647     100.000
 41.657     100.000
 41.667     100.000
 41.677     100.000
 41.687     100.000
 41.697     100.000
 41.707     100.000
 41.717     100.000
 41.727     100.000
 41.737     100.000
 41.747     100.000
 41.757     100.000
 41.767     100.000
 41.777     100.000
 41.787     100.000
 41.797     100.000
 41.807     100.000
 41.817     100.000
 41.827     100.000
 41.837     100.000
 41.847     100.000
 41.857     100.000
 41.867     100.000
 41.877     100.000
 41.887     100.000
 41.897     100.000
 41.907     100.000
 41.917     100.000
 41.927     100.000
 41.937     100.000
 41.947     100.000
 41.957     100.000
 41.967     100.000
 41.977     100.000
 41.987     100.000
 41.997     100.000
 42.008     100.000
 42.018     100.000
 42.028     100.000
 42.038     100.000
 42.048     100.000
 42.058     100.000
 42.068     100.000
 42.078     100.000
 42.088     100.000
 42.098     100.000
 42.108     100.000
 42.118     100.000
 42.128     100.000
 42.138     100.000
 42.148     100.000
 42.158     100.000
 42.168     100.000
 42.178     100.004
 42.188     100.006
 42.198     100.010
 42.208     100.016
 42.218     100.025
 42.228     100.039
 42.238     100.060
 42.248     100.092
 42.258     100.138
 42.268     100.206
 42.278     100.304
 42.288     100.443
 42.298     100.639
 42.308     100.911
 42.318     101.286
 42.328     101.794
 42.338     102.474
 42.348     103.376
 42.358     104.555
 42.368     106.077
 42.378     108.020
 42.388     110.465
 42.398     113.504
 42.408     117.232
 42.418     121.747
 42.428     127.140
 42.438     133.497
 42.448     140.883
 42.458     149.344
 42.468     158.897
 42.478     169.520
 42.488     181.150
 42.498     193.676
 42.508     206.944
 42.518     220.731
 42.528     234.785
 42.538     248.809
 42.548     262.472
 42.558     275.424
 42.569     287.315
 42.579     297.790
 42.589     306.537
 42.599     313.282
 42.609     317.807
 42.619     319.964
 42.629     319.681
 42.639     316.968
 42.649     311.913
 42.659     304.684
 42.669     295.511
 42.679     284.680
 42.689     272.517
 42.699     259.364
 42.709     245.587
 42.719     231.528
 42.729     217.510
 42.739     203.823
 42.749     190.714
 42.759     178.377
 42.769     166.972
 42.779     156.592
 42.789     147.291
 42.799     139.081
 42.809     131.939
 42.819     125.810
 42.829     120.628
 42.839     116.304
 42.849     112.744
 42.859     109.850
 42.869     107.530
 42.879     105.692
 42.889     104.254
 42.899     103.145
 42.909     102.299
 42.919     101.662
 42.929     101.189
 42.939     100.840
 42.949     100.588
 42.959     100.406
 42.969     100.278
 42.979     100.188
 42.989     100.126
 42.999     100.083
 43.009     100.054
 43.019     100.035
 43.029     100.022
 43.039     100.014
 43.049     100.009
 43.059     100.005
 43.069     100.003
 43.079     100.000
 43.089     100.000
 43.099     100.000
 43.109     100.000
 43.120     100.000
 43.130     100.000
 43.140     100.000
 43.150     100.000
 43.160     100.000
 43.170     100.000
 43.180     100.000
 43.190     100.000
 43.200     100.000
 43.210     100.000
 43.220     100.000
 43.230     100.000
 43.240     100.000
 43.250     100.000
 43.260     100.000
 43.270     100.000
 43.280     100.000
 43.290     100.000
 43.300     100.000
 43.310     100.000
 43.320     100.000
 43.330     100.000
 43.340     100.000
 43.350     100.000
 43.360     100.000
 43.370     100.000
 43.380     100.000
 43.390     100.000
 43.400     100.000
 43.410     100.000
 43.420     100.000
 43.430     100.000
 43.440     100.000
 43.450     100.000
 43.460     100.000
 43.470     100.000
 43.480     100.000
 43.490     100.000
 43.500     100.000
 43.510     100.000
 43.520     100.000
 43.530     100.000
 43.540     100.000
 43.550     100.000
 43.560     100.000
 43.570     100.000
 43.580     100.000
 43.590     100.000
 43.600     100.000
 43.610     100.000
 43.620     100.000
 43.630     100.000
 43.640     100.000
 43.650     100.000
 43.660     100.000
 43.670     100.000
 43.681     100.000
 43.691     100.000
 43.701     100.000
 43.711     100.000
 43.721     100.000
 43.731     100.000
 43.741     100.000
 43.751     100.000
 43.761     100.000
 43.771     100.000
 43.781     100.000
 43.791     100.000
 43.801     100.000
 43.811     100.000
 43.821     100.000
 43.831     100.000
 43.841     100.000
 43.851     100.000
 43.861     100.000
 43.871     100.000
 43.881     100.000
 43.891     100.000
 43.901     100.000
 43.911     100.000
 43.921     100.000
 43.931     100.000
 43.941     100.000
 43.951     100.000
 43.961     100.000
 43.971     100.000
 43.981     100.000
 43.991     100.000
 44.001     100.000
 44.011     100.000
 44.021     100.000
 44.031     100.000
 44.041     100.000
 44.051     100.000
 44.061     100.000
 44.071     100.000
 44.081     100.000
 44.091     100.000
 44.101     100.000
 44.111     100.000
 44.121     100.000
 44.131     100.000
 44.141     100.000
 44.151     100.000
 44.161     100.000
 44.171     100.000
 44.181     100.000
 44.191     100.000
 44.201     100.000
 44.211     100.000
 44.221     100.000
 44.232     100.000
 44.242     100.000
 44.252     100.000
 44.262     100.000
 44.272     100.000
 44.282     100.000
 44.292     100.000
 44.302     100.000
 44.312     100.000
 44.322     100.000
 44.332     100.000
 44.342     100.000
 44.352     100.000
 44.362     100.000
 44.372     100.000
 44.382     100.000
 44.392     100.000
 44.402     100.000
 44.412     100.000
 44.422     100.000
 44.432     100.000
 44.442     100.000
 44.452     100.000
 44.462     100.000
 44.472     100.000
 44.482     100.000
 44.492     100.000
 44.502     100.000
 44.512     100.000
 44.522     100.000
 44.532     100.000
 44.542     100.000
 44.552     100.000
 44.562     100.000
 44.572     100.000
 44.582     100.000
 44.592     100.000
 44.602     100.000
 44.612     100.000
 44.622     100.000
 44.632     100.000
 44.642     100.000
 44.652     100.000
 44.662     100.000
 44.672     100.000
 44.682     100.000
 44.692     100.000
 44.702     100.000
 44.712     100.000
 44.722     100.000
 44.732     100.000
 44.742     100.000
 44.752     100.000
 44.762     100.000
 44.772     100.000
 44.782     100.000
 44.793     100.000
 44.803     100.000
 44.813     100.000
 44.823     100.000
 44.833     100.000
 44.843     100.000
 44.853     100.000
 44.863     100.000
 44.873     100.000
 44.883     100.000
 44.893     100.000
 44.903     100.000
 44.913     100.000
 44.923     100.000
 44.933     100.000
 44.943     100.000
 44.953     100.000
 44.963     100.000
 44.973     100.000
 44.983     100.000
 44.993     100.000
 45.003     100.000
 45.013     100.000
 45.023     100.000
 45.033     100.000
 45.043     100.000
 45.053     100.000
 45.063     100.000
 45.073     100.000
 45.083     100.000
 45.093     100.000
 45.103     100.000
 45.113     100.000
 45.123     100.000
 45.133     100.000
 45.143     100.000
 45.153     100.000
 45.163     100.000
 45.173     100.000
 45.183     100.000
 45.193     100.000
 45.203     100.000
 45.213     100.000
 45.223     100.000
 45.233     100.000
 45.243     100.000
 45.253     100.000
 45.263     100.000
 45.273     100.000
 45.283     100.000
 45.293     100.000
 45.303     100.000
 45.313     100.000
 45.323     100.000
 45.333     100.000
 45.344     100.000
 45.354     100.000
 45.364     100.000
 45.374     100.000
 45.384     100.000
 45.394     100.000
 45.404     100.000
 45.414     100.000
 45.424     100.000
 45.434     100.000
 45.444     100.000
 45.454     100.000
 45.464     100.000
 45.474     100.000
 45.484     100.000
 45.494     100.000
 45.504     100.000
 45.514     100.000
 45.524     100.000
 45.534     100.000
 45.544     100.000
 45.554     100.000
 45.564     100.000
 45.574     100.000
 45.584     100.000
 45.594     100.000
 45.604     100.000
 45.614     100.000
 45.624     100.000
 45.634     100.000
 45.644     100.000
 45.654     100.000
 45.664     100.000
 45.674     100.000
 45.684     100.000
 45.694     100.000
 45.704     100.000
 45.714     100.000
 45.724     100.000
 45.734     100.000
 45.744     100.000
 45.754     100.000
 45.764     100.000
 45.774     100.000
 45.784     100.000
 45.794     100.000
 45.804     100.000
 45.814     100.000
 45.824     100.000
 45.834     100.000
 45.844     100.000
 45.854     100.000
 45.864     100.000
 45.874     100.000
 45.884     100.000
 45.894     100.000
 45.905     100.000
 45.915     100.000
 45.925     100.000
 45.935     100.000
 45.945     100.000
 45.955     100.000
 45.965     100.000
 45.975     100.000
 45.985     100.000
 45.995     100.000
 46.005     100.000
 46.015     100.000
 46.025     100.000
 46.035     100.000
 46.045     100.000
 46.055     100.000
 46.065     100.000
 46.075     100.000
 46.085     100.000
 46.095     100.000
 46.105     100.000
 46.115     100.000
 46.125     100.000
 46.135     100.000
 46.145     100.000
 46.155     100.000
 46.165     100.000
 46.175     100.000
 46.185     100.000
 46.195     100.000
 46.205     100.000
 46.215     100.000
 46.225     100.000
 46.235     100.000
 46.245     100.000
 46.255     100.000
 46.265     100.000
 46.275     100.000
 46.285     100.000
 46.295     100.000
 46.305     100.000
 46.315     100.000
 46.325     100.000
 46.335     100.000
 46.345     100.000
 46.355     100.000
 46.365     100.000
 46.375     100.000
 46.385     100.000
 46.395     100.000
 46.405     100.000
 46.415     100.000
 46.425     100.000
 46.435     100.000
 46.445     100.000
 46.456     100.000
 46.466     100.000
 46.476     100.000
 46.486     100.000
 46.496     100.000
 46.506     100.000
 46.516     100.000
 46.526     100.000
 46.536     100.000
 46.546     100.000
 46.556     100.000
 46.566     100.000
 46.576     100.000
 46.586     100.000
 46.596     100.000
 46.606     100.000
 46.616     100.000
 46.626     100.000
 46.636     100.000
 46.646     100.000
 46.656     100.000
 46.666     100.000
 46.676     100.000
 46.686     100.000
 46.696     100.000
 46.706     100.000
 46.716     100.000
 46.726     100.000
 46.736     100.000
 46.746     100.000
 46.756     100.000
 46.766     100.000
 46.776     100.000
 46.786     100.000
 46.796     100.000
 46.806     100.000
 46.816     100.000
 46.826     100.000
 46.836     100.000
 46.846     100.000
 46.856     100.000
 46.866     100.000
 46.876     100.000
 46.886     100.000
 46.896     100.000
 46.906     100.000
 46.916     100.000
 46.926     100.000
 46.936     100.000
 46.946     100.000
 46.956     100.000
 46.966     100.000
 46.976     100.000
 46.986     100.000
 46.996     100.000
 47.006     100.000
 47.017     100.000
 47.027     100.000
 47.037     100.000
 47.047     100.000
 47.057     100.000
 47.067     100.000
 47.077     100.000
 47.087     100.000
 47.097     100.000
 47.107     100.000
 47.117     100.000
 47.127     100.000
 47.137     100.000
 47.147     100.000
 47.157     100.000
 47.167     100.000
 47.177     100.000
 47.187     100.000
 47.197     100.000
 47.207     100.000
 47.217     100.000
 47.227     100.000
 47.237     100.000
 47.247     100.000
 47.257     100.000
 47.267     100.000
 47.277     100.000
 47.287     100.000
 47.297     100.000
 47.307     100.000
 47.317     100.000
 47.327     100.000
 47.337     100.000
 47.347     100.000
 47.357     100.000
 47.367     100.000
 47.377     100.000
 47.387     100.000
 47.397     100.000
 47.407     100.000
 47.417     100.000
 47.427     100.000
 47.437     100.000
 47.447     100.007
 47.457     100.010
 47.467     100.016
 47.477     100.023
 47.487     100.035
 47.497     100.052
 47.507     100.076
 47.517     100.110
 47.527     100.159
 47.537     100.227
 47.547     100.321
 47.557     100.451
 47.568     100.627
 47.578     100.866
 47.588     101.185
 47.598     101.608
 47.608     102.163
 47.618     102.886
 47.628     103.817
 47.638     105.004
 47.648     106.505
 47.658     108.385
 47.668     110.714
 47.678     113.575
 47.688     117.053
 47.698     121.239
 47.708     126.225
 47.718     132.106
 47.728     138.971
 47.738     146.899
 47.748     155.961
 47.758     166.201
 47.768     177.645
 47.778     190.291
 47.788     204.100
 47.798     218.996
 47.808     234.868
 47.818     251.546
 47.828     268.832
 47.838     286.485
 47.848     304.224
 47.858     321.742
 47.868     338.707
 47.878     354.783
 47.888     369.613
 47.898     382.870
 47.908     394.246
 47.918     403.466
 47.928     410.304
 47.938     414.588
 47.948     416.207
 47.958     415.120
 47.968     411.357
 47.978     405.013
 47.988     396.247
 47.998     385.272
 48.008     372.362
 48.018     357.817
 48.028     341.965
 48.038     325.150
 48.048     307.714
 48.058     289.993
 48.068     272.294
 48.078     254.915
 48.088     238.100
 48.098     222.059
 48.108     206.961
 48.118     192.930
 48.129     180.045
 48.139     168.363
 48.149     157.887
 48.159     148.598
 48.169     140.451
 48.179     133.382
 48.189     127.312
 48.199     122.156
 48.209     117.820
 48.219     114.210
 48.229     111.235
 48.239     108.807
 48.249     106.844
 48.259     105.274
 48.269     104.029
 48.279     103.052
 48.289     102.292
 48.299     101.706
 48.309     101.260
 48.319     100.922
 48.329     100.669
 48.339     100.481
 48.349     100.343
 48.359     100.243
 48.369     100.170
 48.379     100.118
 48.389     100.082
 48.399     100.056
 48.409     100.038
 48.419     100.025
 48.429     100.017
 48.439     100.011
 48.449     100.007
 48.459     100.000
 48.469     100.000
 48.479     100.000
 48.489     100.000
 48.499     100.000
 48.509     100.000
 48.519     100.000
 48.529     100.000
 48.539     100.000
 48.549     100.000
 48.559     100.000
 48.569     100.000
 48.579     100.000
 48.589     100.000
 48.599     100.000
 48.609     100.000
 48.619     100.000
 48.629     100.000
 48.639     100.000
 48.649     100.000
 48.659     100.000
 48.669     100.000
 48.679     100.000
 48.690     100.000
 48.700     100.000
 48.710     100.000
 48.720     100.000
 48.730     100.000
 48.740     100.000
 48.750     100.000
 48.760     100.000
 48.770     100.000
 48.780     100.000
 48.790     100.000
 48.800     100.000
 48.810     100.000
 48.820     100.000
 48.830     100.000
 48.840     100.000
 48.850     100.000
 48.860     100.000
 48.870     100.000
 48.880     100.000
 48.890     100.000
 48.900     100.000
 48.910     100.000
 48.920     100.000
 48.930     100.000
 48.940     100.000
 48.950     100.000
 48.960     100.000
 48.970     100.000
 48.980     100.000
 48.990     100.000
 49.000     100.000
 49.010     100.000
 49.020     100.000
 49.030     100.000
 49.040     100.000
 49.050     100.000
 49.060     100.000
 49.070     100.000
 49.080     100.000
 49.090     100.000
 49.100     100.000
 49.110     100.000
 49.120     100.000
 49.130     100.000
 49.140     100.000
 49.150     100.000
 49.160     100.000
 49.170     100.000
 49.180     100.000
 49.190     100.000
 49.200     100.000
 49.210     100.000
 49.220     100.000
 49.230     100.000
 49.241     100.000
 49.251     100.000
 49.261     100.000
 49.271     100.000
 49.281     100.000
 49.291     100.000
 49.301     100.000
 49.311     100.000
 49.321     100.000
 49.331     100.000
 49.341     100.000
 49.351     100.000
 49.361     100.000
 49.371     100.000
 49.381     100.000
 49.391     100.000
 49.401     100.000
 49.411     100.000
 49.421     100.000
 49.431     100.000
 49.441     100.000
 49.451     100.000
 49.461     100.000
 49.471     100.000
 49.481     100.000
 49.491     100.000
 49.501     100.000
 49.511     100.000
 49.521     100.000
 49.531     100.000
 49.541     100.000
 49.551     100.000
 49.561     100.000
 49.571     100.000
 49.581     100.000
 49.591     100.000
 49.601     100.000
 49.611     100.000
 49.621     100.000
 49.631     100.000
 49.641     100.000
 49.651     100.000
 49.661     100.000
 49.671     100.000
 49.681     100.000
 49.691     100.000
 49.701     100.000
 49.711     100.000
 49.721     100.000
 49.731     100.000
 49.741     100.000
 49.751     100.000
 49.761     100.000
 49.771     100.000
 49.781     100.000
 49.791     100.000
 49.802     100.000
 49.812     100.000
 49.822     100.000
 49.832     100.000
 49.842     100.000
 49.852     100.000
 49.862     100.000
 49.872     100.000
 49.882     100.000
 49.892     100.000
 49.902     100.000
 49.912     100.000
 49.922     100.000
 49.932     100.000
 49.942     100.000
 49.952     100.000
 49.962     100.000
 49.972     100.000
 49.982     100.000
 49.992     100.000
 50.002     100.000
 50.012     100.000
 50.022     100.000
 50.032     100.000
 50.042     100.000
 50.052     100.000
 50.062     100.000
 50.072     100.000
 50.082     100.000
 50.092     100.000
 50.102     100.000
 50.112     100.000
 50.122     100.000
 50.132     100.000
 50.142     100.000
 50.152     100.000
 50.162     100.000
 50.172     100.000
 50.182     100.000
 50.192     100.000
 50.202     100.000
 50.212     100.000
 50.222     100.000
 50.232     100.000
 50.242     100.000
 50.252     100.000
 50.262     100.000
 50.272     100.000
 50.282     100.000
 50.292     100.000
 50.302     100.000
 50.312     100.000
 50.322     100.000
 50.332     100.000
 50.342     100.000
 50.353     100.000
 50.363     100.000
 50.373     100.000
 50.383     100.000
 50.393     100.000
 50.403     100.000
 50.413     100.000
 50.423     100.000
 50.433     100.000
 50.443     100.000
 50.453     100.000
 50.463     100.000
 50.473     100.000
 50.483     100.000
 50.493     100.000
 50.503     100.000
 50.513     100.000
 50.523     100.000
 50.533     100.000
 50.543     100.000
 50.553     100.000
 50.563     100.000
 50.573     100.000
 50.583     100.000
 50.593     100.000
 50.603     100.000
 50.613     100.000
 50.623     100.000
 50.633     100.000
 50.643     100.000
 50.653     100.000
 50.663     100.000
 50.673     100.000
 50.683     100.000
 50.693     100.000
 50.703     100.000
 50.713     100.000
 50.723     100.000
 50.733     100.000
 50.743     100.000
 50.753     100.000
 50.763     100.000
 50.773     100.000
 50.783     100.000
 50.793     100.000
 50.803     100.000
 50.813     100.000
 50.823     100.000
 50.833     100.000
 50.843     100.000
 50.853     100.000
 50.863     100.000
 50.873     100.000
 50.883     100.000
 50.893     100.000
 50.903     100.000
 50.914     100.000
 50.924     100.000
 50.934     100.000
 50.944     100.000
 50.954     100.000
 50.964     100.000
 50.974     100.000
 50.984     100.000
 50.994     100.000
 51.004     100.000
 51.014     100.000
 51.024     100.000
 51.034     100.000
 51.044     100.000
 51.054     100.000
 51.064     100.000
 51.074     100.000
 51.084     100.000
 51.094     100.000
 51.104     100.000
 51.114     100.000
 51.124     100.000
 51.134     100.000
 51.144     100.000
 51.154     100.000
 51.164     100.000
 51.174     100.000
 51.184     100.000
 51.194     100.000
 51.204     100.000
 51.214     100.000
 51.224     100.000
 51.234     100.000
 51.244     100.000
 51.254     100.000
 51.264     100.000
 51.274     100.000
 51.284     100.000
 51.294     100.000
 51.304     100.000
 51.314     100.000
 51.324     100.000
 51.334     100.000
 51.344     100.000
 51.354     100.000
 51.364     100.000
 51.374     100.000
 51.384     100.000
 51.394     100.000
 51.404     100.000
 51.414     100.000
 51.424     100.000
 51.434     100.000
 51.444     100.000
 51.454     100.000
 51.465     100.000
 51.475     100.000
 51.485     100.000
 51.495     100.000
 51.505     100.000
 51.515     100.000
 51.525     100.000
 51.535     100.000
 51.545     100.000
 51.555     100.000
 51.565     100.000
 51.575     100.000
 51.585     100.000
 51.595     100.000
 51.605     100.000
 51.615     100.000
 51.625     100.000
 51.635     100.000
 51.645     100.000
 51.655     100.000
 51.665     100.000
 51.675     100.000
 51.685     100.000
 51.695     100.000
 51.705     100.000
 51.715     100.000
 51.725     100.000
 51.735     100.000
 51.745     100.000
 51.755     100.000
 51.765     100.000
 51.775     100.000
 51.785     100.000
 51.795     100.000
 51.805     100.000
 51.815     100.000
 51.825     100.000
 51.835     100.000
 51.845     100.000
 51.855     100.000
 51.865     100.000
 51.875     100.000
 51.885     100.000
 51.895     100.000
 51.905     100.000
 51.915     100.000
 51.925     100.000
 51.935     100.000
 51.945     100.000
 51.955     100.000
 51.965     100.000
 51.975     100.000
 51.985     100.000
 51.995     100.000
 52.005     100.000
 52.015     100.000
 52.026     100.000
 52.036     100.000
 52.046     100.000
 52.056     100.000
 52.066     100.000
 52.076     100.000
 52.086     100.000
 52.096     100.000
 52.106     100.000
 52.116     100.000
 52.126     100.000
 52.136     100.000
 52.146     100.000
 52.156     100.000
 52.166     100.000
 52.176     100.000
 52.186     100.000
 52.196     100.000
 52.206     100.000
 52.216     100.000
 52.226     100.000
 52.236     100.000
 52.246     100.000
 52.256     100.000
 52.266     100.000
 52.276     100.000
 52.286     100.000
 52.296     100.001
 52.306     100.002
 52.316     100.003
 52.326     100.004
 52.336     100.006
 52.346     100.009
 52.356     100.013
 52.366     100.018
 52.376     100.025
 52.386     100.035
 52.396     100.049
 52.406     100.067
 52.416     100.091
 52.426     100.123
 52.436     100.165
 52.446     100.220
 52.456     100.291
 52.466     100.383
 52.476     100.501
 52.486     100.649
 52.496     100.837
 52.506     101.071
 52.516     101.360
 52.526     101.717
 52.536     102.152
 52.546     102.679
 52.556     103.313
 52.566     104.068
 52.576     104.961
 52.587     106.009
 52.597     107.228
 52.607     108.635
 52.617     110.246
 52.627     112.074
 52.637     114.131
 52.647     116.425
 52.657     118.961
 52.667     121.738
 52.677     124.753
 52.687     127.993
 52.697     131.440
 52.707     135.069
 52.717     138.851
 52.727     142.745
 52.737     146.710
 52.747     150.692
 52.757     154.638
 52.767     158.487
 52.777     162.180
 52.787     165.654
 52.797     168.849
 52.807     171.705
 52.817     174.168
 52.827     176.191
 52.837     177.734
 52.847     178.766
 52.857     179.267
 52.867     179.224
 52.877     178.640
 52.887     177.527
 52.897     175.907
 52.907     173.812
 52.917     171.284
 52.927     168.371
 52.937     165.130
 52.947     161.618
 52.957     157.897
 52.967     154.028
 52.977     150.073
 52.987     146.089
 52.997     142.133
 53.007     138.253
 53.017     134.493
 53.027     130.890
 53.037     127.474
 53.047     124.269
 53.057     121.290
 53.067     118.550
 53.077     116.052
 53.087     113.795
 53.097     111.775
 53.107     109.981
 53.117     108.403
 53.127     107.026
 53.138     105.835
 53.148     104.812
 53.158     103.942
 53.168     103.207
 53.178     102.591
 53.188     102.079
 53.198     101.657
 53.208     101.311
 53.218     101.031
 53.228     100.805
 53.238     100.624
 53.248     100.480
 53.258     100.367
 53.268     100.279
 53.278     100.211
 53.288     100.158
 53.298     100.117
 53.308     100.087
 53.318     100.064
 53.328     100.046
 53.338     100.034
 53.348     100.024
 53.358     100.017
 53.368     100.012
 53.378     100.009
 53.388     100.006
 53.398     100.004
 53.408     100.003
 53.418     100.002
 53.428     100.001
 53.438     100.000
 53.448     100.000
 53.458     100.000
 53.468     100.000
 53.478     100.000
 53.488     100.000
 53.498     100.000
 53.508     100.000
 53.518     100.000
 53.528     100.000
 53.538     100.000
 53.548     100.000
 53.558     100.000
 53.568     100.000
 53.578     100.000
 53.588     100.000
 53.598     100.000
 53.608     100.000
 53.618     100.000
 53.628     100.000
 53.638     100.000
 53.648     100.000
 53.658     100.000
 53.668     100.000
 53.678     100.000
 53.688     100.000
 53.699     100.000
 53.709     100.000
 53.719     100.000
 53.729     100.000
 53.739     100.000
 53.749     100.000
 53.759     100.000
 53.769     100.000
 53.779     100.000
 53.789     100.000
 53.799     100.000
 53.809     100.000
 53.819     100.000
 53.829     100.000
 53.839     100.000
 53.849     100.000
 53.859     100.000
 53.869     100.000
 53.879     100.000
 53.889     100.000
 53.899     100.000
 53.909     100.000
 53.919     100.000
 53.929     100.000
 53.939     100.000
 53.949     100.000
 53.959     100.000
 53.969     100.000
 53.979     100.000
 53.989     100.000
 53.999     100.000
 54.009     100.000
 54.019     100.000
 54.029     100.000
 54.039     100.000
 54.049     100.000
 54.059     100.000
 54.069     100.000
 54.079     100.000
 54.089     100.000
 54.099     100.000
 54.109     100.000
 54.119     100.000
 54.129     100.000
 54.139     100.000
 54.149     100.000
 54.159     100.000
 54.169     100.000
 54.179     100.000
 54.189     100.000
 54.199     100.000
 54.209     100.000
 54.219     100.000
 54.229     100.000
 54.239     100.000
 54.250     100.000
 54.260     100.000
 54.270     100.000
 54.280     100.000
 54.290     100.000
 54.300     100.000
 54.310     100.000
 54.320     100.000
 54.330     100.000
 54.340     100.000
 54.350     100.000
 54.360     100.000
 54.370     100.000
 54.380     100.000
 54.390     100.000
 54.400     100.000
 54.410     100.000
 54.420     100.000
 54.430     100.000
 54.440     100.000
 54.450     100.000
 54.460     100.000
 54.470     100.000
 54.480     100.000
 54.490     100.000
 54.500     100.000
 54.510     100.000
 54.520     100.000
 54.530     100.000
 54.540     100.000
 54.550     100.000
 54.560     100.000
 54.570     100.000
 54.580     100.000
 54.590     100.000
 54.600     100.000
 54.610     100.000
 54.620     100.000
 54.630     100.000
 54.640     100.000
 54.650     100.000
 54.660     100.000
 54.670     100.000
 54.680     100.000
 54.690     100.000
 54.700     100.000
 54.710     100.000
 54.720     100.000
 54.730     100.000
 54.740     100.000
 54.750     100.000
 54.760     100.000
 54.770     100.000
 54.780     100.000
 54.790     100.000
 54.800     100.000
 54.811     100.000
 54.821     100.000
 54.831     100.000
 54.841     100.000
 54.851     100.000
 54.861     100.000
 54.871     100.000
 54.881     100.000
 54.891     100.000
 54.901     100.000
 54.911     100.000
 54.921     100.000
 54.931     100.000
 54.941     100.000
 54.951     100.000
 54.961     100.000
 54.971     100.000
 54.981     100.000
 54.991     100.000
 55.001     100.000
 55.011     100.000
 55.021     100.000
 55.031     100.000
 55.041     100.000
 55.051     100.000
 55.061     100.000
 55.071     100.000
 55.081     100.000
 55.091     100.000
 55.101     100.000
 55.111     100.000
 55.121     100.000
 55.131     100.000
 55.141     100.000
 55.151     100.000
 55.161     100.000
 55.171     100.000
 55.181     100.000
 55.191     100.000
 55.201     100.000
 55.211     100.000
 55.221     100.000
 55.231     100.000
 55.241     100.000
 55.251     100.000
 55.261     100.000
 55.271     100.000
 55.281     100.000
 55.291     100.000
 55.301     100.000
 55.311     100.000
 55.321     100.000
 55.331     100.000
 55.341     100.000
 55.351     100.000
 55.362     100.000
 55.372     100.000
 55.382     100.000
 55.392     100.000
 55.402     100.000
 55.412     100.000
 55.422     100.000
 55.432     100.000
 55.442     100.000
 55.452     100.000
 55.462     100.000
 55.472     100.000
 55.482     100.000
 55.492     100.000
 55.502     100.000
 55.512     100.000
 55.522     100.000
 55.532     100.000
 55.542     100.000
 55.552     100.000
 55.562     100.000
 55.572     100.000
 55.582     100.000
 55.592     100.000
 55.602     100.000
 55.612     100.000
 55.622     100.000
 55.632     100.000
 55.642     100.000
 55.652     100.000
 55.662     100.000
 55.672     100.000
 55.682     100.000
 55.692     100.000
 55.702     100.000
 55.712     100.000
 55.722     100.000
 55.732     100.000
 55.742     100.000
 55.752     100.000
 55.762     100.000
 55.772     100.000
 55.782     100.000
 55.792     100.000
 55.802     100.000
 55.812     100.000
 55.822     100.000
 55.832     100.000
 55.842     100.000
 55.852     100.000
 55.862     100.000
 55.872     100.000
 55.882     100.000
 55.892     100.000
 55.902     100.000
 55.912     100.000
 55.923     100.000
 55.933     100.000
 55.943     100.000
 55.953     100.000
 55.963     100.000
 55.973     100.000
 55.983     100.000
 55.993     100.000
 56.003     100.000
 56.013     100.000
 56.023     100.000
 56.033     100.000
 56.043     100.000
 56.053     100.000
 56.063     100.000
 56.073     100.000
 56.083     100.000
 56.093     100.000
 56.103     100.000
 56.113     100.000
 56.123     100.000
 56.133     100.000
 56.143     100.000
 56.153     100.000
 56.163     100.000
 56.173     100.000
 56.183     100.000
 56.193     100.000
 56.203     100.000
 56.213     100.000
 56.223     100.000
 56.233     100.000
 56.243     100.000
 56.253     100.000
 56.263     100.000
 56.273     100.000
 56.283     100.000
 56.293     100.000
 56.303     100.000
 56.313     100.000
 56.323     100.000
 56.333     100.000
 56.343     100.000
 56.353     100.000
 56.363     100.000
 56.373     100.000
 56.383     100.000
 56.393     100.000
 56.403     100.000
 56.413     100.000
 56.423     100.000
 56.433     100.000
 56.443     100.000
 56.453     100.000
 56.463     100.000
 56.474     100.000
 56.484     100.000
 56.494     100.000
 56.504     100.000
 56.514     100.000
 56.524     100.000
 56.534     100.000
 56.544     100.000
 56.554     100.000
 56.564     100.000
 56.574     100.000
 56.584     100.000
 56.594     100.000
 56.604     100.000
 56.614     100.000
 56.624     100.000
 56.634     100.000
 56.644     100.000
 56.654     100.000
 56.664     100.000
 56.674     100.000
 56.684     100.000
 56.694     100.000
 56.704     100.000
 56.714     100.000
 56.724     100.000
 56.734     100.000
 56.744     100.000
 56.754     100.000
 56.764     100.000
 56.774     100.000
 56.784     100.000
 56.794     100.000
 56.804     100.000
 56.814     100.000
 56.824     100.000
 56.834     100.000
 56.844     100.000
 56.854     100.008
 56.864     100.011
 56.874     100.016
 56.884     100.022
 56.894     100.031
 56.904     100.043
 56.914     100.059
 56.924     100.080
 56.934     100.109
 56.944     100.146
 56.954     100.197
 56.964     100.262
 56.974     100.348
 56.984     100.460
 56.994     100.604
 57.004     100.788
 57.014     101.022
 57.024     101.319
 57.035     101.693
 57.045     102.160
 57.055     102.741
 57.065     103.458
 57.075     104.338
 57.085     105.412
 57.095     106.714
 57.105     108.282
 57.115     110.158
 57.125     112.389
 57.135     115.026
 57.145     118.122
 57.155     121.732
 57.165     125.916
 57.175     130.730
 57.185     136.234
 57.195     142.483
 57.205     149.530
 57.215     157.421
 57.225     166.199
 57.235     175.885
 57.245     186.499
 57.255     198.042
 57.265     210.502
 57.275     223.845
 57.285     238.023
 57.295     252.954
 57.305     268.547
 57.315     284.684
 57.325     301.229
 57.335     318.023
 57.345     334.896
 57.355     351.645
 57.365     368.072
 57.375     383.966
 57.385     399.110
 57.395     413.290
 57.405     426.298
 57.415     437.938
 57.425     448.021
 57.435     456.388
 57.445     462.905
 57.455     467.463
 57.465     469.986
 57.475     470.431
 57.485     468.790
 57.495     465.092
 57.505     459.399
 57.515     451.805
 57.525     442.434
 57.535     431.435
 57.545     418.988
 57.555     405.283
 57.565     390.523
 57.575     374.923
 57.585     358.697
 57.596     342.059
 57.606     325.212
 57.616     308.364
 57.626     291.693
 57.636     275.364
 57.646     259.524
 57.656     244.298
 57.666     229.786
 57.676     216.082
 57.686     203.241
 57.696     191.304
 57.706     180.294
 57.716     170.214
 57.726     161.050
 57.736     152.787
 57.746     145.386
 57.756     138.803
 57.766     132.988
 57.776     127.887
 57.786     123.442
 57.796     119.594
 57.806     116.286
 57.816     113.460
 57.826     111.063
 57.836     109.041
 57.846     107.347
 57.856     105.936
 57.866     104.770
 57.876     103.811
 57.886     103.028
 57.896     102.392
 57.906     101.879
 57.916     101.468
 57.926     101.140
 57.936     100.881
 57.946     100.677
 57.956     100.517
 57.966     100.392
 57.976     100.296
 57.986     100.223
 57.996     100.166
 58.006     100.123
 58.016     100.091
 58.026     100.067
 58.036     100.049
 58.046     100.035
 58.056     100.026
 58.066     100.018
 58.076     100.013
 58.086     100.009
 58.096     100.007
 58.106     100.000
 58.116     100.000
 58.126     100.000
 58.136     100.000
 58.147     100.000
 58.157     100.000
 58.167     100.000
 58.177     100.000
 58.187     100.000
 58.197     100.000
 58.207     100.000
 58.217     100.000
 58.227     100.000
 58.237     100.000
 58.247     100.000
 58.257     100.000
 58.267     100.000
 58.277     100.000
 58.287     100.000
 58.297     100.000
 58.307     100.000
 58.317     100.000
 58.327     100.000
 58.337     100.000
 58.347     100.000
 58.357     100.000
 58.367     100.000
 58.377     100.000
 58.387     100.000
 58.397     100.000
 58.407     100.000
 58.417     100.000
 58.427     100.000
 58.437     100.000
 58.447     100.000
 58.457     100.000
 58.467     100.000
 58.477     100.000
 58.487     100.000
 58.497     100.000
 58.507     100.000
 58.517     100.000
 58.527     100.000
 58.537     100.000
 58.547     100.000
 58.557     100.000
 58.567     100.000
 58.577     100.000
 58.587     100.000
 58.597     100.000
 58.607     100.000
 58.617     100.000
 58.627     100.000
 58.637     100.000
 58.647     100.000
 58.657     100.000
 58.667     100.000
 58.677     100.000
 58.687     100.000
 58.697     100.000
 58.708     100.000
 58.718     100.000
 58.728     100.000
 58.738     100.000
 58.748     100.000
 58.758     100.000
 58.768     100.000
 58.778     100.000
 58.788     100.000
 58.798     100.000
 58.808     100.000
 58.818     100.000
 58.828     100.000
 58.838     100.000
 58.848     100.000
 58.858     100.000
 58.868     100.000
 58.878     100.000
 58.888     100.000
 58.898     100.000
 58.908     100.000
 58.918     100.000
 58.928     100.000
 58.938     100.000
 58.948     100.000
 58.958     100.000
 58.968     100.000
 58.978     100.000
 58.988     100.000
 58.998     100.000
 59.008     100.000
 59.018     100.000
 59.028     100.000
 59.038     100.000
 59.048     100.000
 59.058     100.000
 59.068     100.000
 59.078     100.000
 59.088     100.000
 59.098     100.000
 59.108     100.000
 59.118     100.000
 59.128     100.000
 59.138     100.000
 59.148     100.000
 59.158     100.000
 59.168     100.000
 59.178     100.000
 59.188     100.000
 59.198     100.000
 59.208     100.000
 59.218     100.000
 59.228     100.000
 59.238     100.000
 59.248     100.000
 59.259     100.000
 59.269     100.000
 59.279     100.000
 59.289     100.000
 59.299     100.000
 59.309     100.000
 59.319     100.000
 59.329     100.000
 59.339     100.000
 59.349     100.000
 59.359     100.000
 59.369     100.000
 59.379     100.000
 59.389     100.000
 59.399     100.000
 59.409     100.000
 59.419     100.000
 59.429     100.000
 59.439     100.000
 59.449     100.000
 59.459     100.000
 59.469     100.000
 59.479     100.000
 59.489     100.000
 59.499     100.000
 59.509     100.000
 59.519     100.000
 59.529     100.000
 59.539     100.000
 59.549     100.000
 59.559     100.000
 59.569     100.000
 59.579     100.000
 59.589     100.000
 59.599     100.000
 59.609     100.000
 59.619     100.000
 59.629     100.000
 59.639     100.000
 59.649     100.000
 59.659     100.000
 59.669     100.000
 59.679     100.000
 59.689     100.000
 59.699     100.000
 59.709     100.000
 59.719     100.000
 59.729     100.000
 59.739     100.000
 59.749     100.000
 59.759     100.000
 59.769     100.000
 59.779     100.000
 59.789     100.000
 59.799     100.000
 59.809     100.000
 59.820     100.000
 59.830     100.000
 59.840     100.000
 59.850     100.000
 59.860     100.000
 59.870     100.000
 59.880     100.000
 59.890     100.000
 59.900     100.000
 59.910     100.000
 59.920     100.000
 59.930     100.000
 59.940     100.000
 59.950     100.000
 59.960     100.000
 59.970     100.000
 59.980     100.000
 59.990     100.000
 60.000     100.000
 60.010     100.000
 60.020     100.000
 60.030     100.000
 60.040     100.000
 60.050     100.000
 60.060     100.000
 60.070     100.000
 60.080     100.000
 60.090     100.000
 60.100     100.000
 60.110     100.000
 60.120     100.000
 60.130     100.000
 60.140     100.000
 60.150     100.000
 60.160     100.000
 60.170     100.000
 60.180     100.000
 60.190     100.000
 60.200     100.000
 60.210     100.000
 60.220     100.000
 60.230     100.000
 60.240     100.000
 60.250     100.000
 60.260     100.000
 60.270     100.000
 60.280     100.000
 60.290     100.000
 60.300     100.000
 60.310     100.000
 60.320     100.000
 60.330     100.000
 60.340     100.000
 60.350     100.000
 60.360     100.000
 60.371     100.000
 60.381     100.000
 60.391     100.000
 60.401     100.000
 60.411     100.000
 60.421     100.000
 60.431     100.000
 60.441     100.000
 60.451     100.000
 60.461     100.000
 60.471     100.000
 60.481     100.000
 60.491     100.000
 60.501     100.000
 60.511     100.000
 60.521     100.000
 60.531     100.000
 60.541     100.000
 60.551     100.000
 60.561     100.000
 60.571     100.000
 60.581     100.000
 60.591     100.000
 60.601     100.000
 60.611     100.000
 60.621     100.000
 60.631     100.000
 60.641     100.000
 60.651     100.000
 60.661     100.000
 60.671     100.000
 60.681     100.000
 60.691     100.000
 60.701     100.000
 60.711     100.000
 60.721     100.000
 60.731     100.000
 60.741     100.000
 60.751     100.000
 60.761     100.000
 60.771     100.000
 60.781     100.000
 60.791     100.000
 60.801     100.000
 60.811     100.000
 60.821     100.000
 60.831     100.000
 60.841     100.000
 60.851     100.000
 60.861     100.000
 60.871     100.000
 60.881     100.000
 60.891     100.000
 60.901     100.000
 60.911     100.000
 60.921     100.000
 60.932     100.000
 60.942     100.000
 60.952     100.000
 60.962     100.000
 60.972     100.000
 60.982     100.000
 60.992     100.000
 61.002     100.000
 61.012     100.000
 61.022     100.000
 61.032     100.000
 61.042     100.000
 61.052     100.000
 61.062     100.000
 61.072     100.000
 61.082     100.000
 61.092     100.000
 61.102     100.000
 61.112     100.000
 61.122     100.000
 61.132     100.000
 61.142     100.000
 61.152     100.000
 61.162     100.000
 61.172     100.001
 61.182     100.001
 61.192     100.001
 61.202     100.001
 61.212     100.002
 61.222     100.003
 61.232     100.004
 61.242     100.005
 61.252     100.007
 61.262     100.009
 61.272     100.012
 61.282     100.015
 61.292     100.020
 61.302     100.026
 61.312     100.034
 61.322     100.044
 61.332     100.056
 61.342     100.071
 61.352     100.091
 61.362     100.115
 61.372     100.145
 61.382     100.182
 61.392     100.227
 61.402     100.282
 61.412     100.349
 61.422     100.429
 61.432     100.525
 61.442     100.641
 61.452     100.777
 61.462     100.939
 61.472     101.128
 61.483     101.350
 61.493     101.607
 61.503     101.905
 61.513     102.246
 61.523     102.637
 61.533     103.081
 61.543     103.583
 61.553     104.147
 61.563     104.777
 61.573     105.477
 61.583     106.250
 61.593     107.099
 61.603     108.024
 61.613     109.028
 61.623     110.109
 61.633     111.266
 61.643     112.497
 61.653     113.797
 61.663     115.160
 61.673     116.580
 61.683     118.046
 61.693     119.550
 61.703     121.080
 61.713     122.623
 61.723     124.163
 61.733     125.687
 61.743     127.179
 61.753     128.621
 61.763     129.998
 61.773     131.294
 61.783     132.491
 61.793     133.576
 61.803     134.532
 61.813     135.349
 61.823     136.015
 61.833     136.520
 61.843     136.858
 61.853     137.024
 61.863     137.015
 61.873     136.832
 61.883     136.477
 61.893     135.956
 61.903     135.274
 61.913     134.443
 61.923     133.473
 61.933     132.377
 61.943     131.169
 61.953     129.865
 61.963     128.480
 61.973     127.032
 61.983     125.537
 61.993     124.010
 62.003     122.469
 62.013     120.927
 62.023     119.399
 62.033     117.898
 62.044     116.436
 62.054     115.022
 62.064     113.664
 62.074     112.371
 62.084     111.147
 62.094     109.998
 62.104     108.924
 62.114     107.929
 62.124     107.011
 62.134     106.170
 62.144     105.404
 62.154     104.711
 62.164     104.088
 62.174     103.530
 62.184     103.035
 62.194     102.596
 62.204     102.210
 62.214     101.873
 62.224     101.580
 62.234     101.326
 62.244     101.108
 62.254     100.921
 62.264     100.763
 62.274     100.628
 62.284     100.515
 62.294     100.420
 62.304     100.341
 62.314     100.276
 62.324     100.222
 62.334     100.178
 62.344     100.142
 62.354     100.112
 62.364     100.089
 62.374     100.070
 62.384     100.055
 62.394     100.042
 62.404     100.033
 62.414     100.025
 62.424     100.019
 62.434     100.015
 62.444     100.011
 62.454     100.009
 62.464     100.006
 62.474     100.005
 62.484     100.004
 62.494     100.003
 62.504     100.002
 62.514     100.001
 62.524     100.001
 62.534     100.001
 62.544     100.000
 62.554     100.000
 62.564     100.000
 62.574     100.000
 62.584     100.000
 62.595     100.000
 62.605     100.000
 62.615     100.000
 62.625     100.000
 62.635     100.000
 62.645     100.000
 62.655     100.000
 62.665     100.000
 62.675     100.000
 62.685     100.000
 62.695     100.000
 62.705     100.000
 62.715     100.000
 62.725     100.000
 62.735     100.000
 62.745     100.000
 62.755     100.000
 62.765     100.000
 62.775     100.000
 62.785     100.000
 62.795     100.000
 62.805     100.000
 62.815     100.000
 62.825     100.000
 62.835     100.000
 62.845     100.000
 62.855     100.000
 62.865     100.000
 62.875     100.000
 62.885     100.000
 62.895     100.000
 62.905     100.000
 62.915     100.000
 62.925     100.000
 62.935     100.000
 62.945     100.000
 62.955     100.000
 62.965     100.000
 62.975     100.000
 62.985     100.000
 62.995     100.000
 63.005     100.000
 63.015     100.000
 63.025     100.000
 63.035     100.000
 63.045     100.000
 63.055     100.000
 63.065     100.000
 63.075     100.000
 63.085     100.000
 63.095     100.000
 63.105     100.000
 63.115     100.000
 63.125     100.000
 63.135     100.000
 63.145     100.000
 63.156     100.000
 63.166     100.000
 63.176     100.000
 63.186     100.000
 63.196     100.000
 63.206     100.000
 63.216     100.000
 63.226     100.000
 63.236     100.000
 63.246     100.000
 63.256     100.000
 63.266     100.000
 63.276     100.000
 63.286     100.000
 63.296     100.000
 63.306     100.000
 63.316     100.000
 63.326     100.000
 63.336     100.000
 63.346     100.000
 63.356     100.000
 63.366     100.000
 63.376     100.000
 63.386     100.000
 63.396     100.000
 63.406     100.000
 63.416     100.000
 63.426     100.000
 63.436     100.000
 63.446     100.000
 63.456     100.000
 63.466     100.000
 63.476     100.000
 63.486     100.000
 63.496     100.000
 63.506     100.000
 63.516     100.000
 63.526     100.000
 63.536     100.000
 63.546     100.000
 63.556     100.000
 63.566     100.000
 63.576     100.000
 63.586     100.000
 63.596     100.000
 63.606     100.000
 63.616     100.000
 63.626     100.000
 63.636     100.000
 63.646     100.000
 63.656     100.000
 63.666     100.000
 63.676     100.000
 63.686     100.000
 63.696     100.000
 63.706     100.000
 63.717     100.000
 63.727     100.000
 63.737     100.000
 63.747     100.000
 63.757     100.000
 63.767     100.000
 63.777     100.000
 63.787     100.000
 63.797     100.000
 63.807     100.000
 63.817     100.000
 63.827     100.000
 63.837     100.000
 63.847     100.000
 63.857     100.000
 63.867     100.000
 63.877     100.000
 63.887     100.000
 63.897     100.000
 63.907     100.000
 63.917     100.000
 63.927     100.000
 63.937     100.000
 63.947     100.000
 63.957     100.000
 63.967     100.000
 63.977     100.000
 63.987     100.000
 63.997     100.000
 64.007     100.000
 64.017     100.000
 64.027     100.000
 64.037     100.000
 64.047     100.000
 64.057     100.000
 64.067     100.000
 64.077     100.000
 64.087     100.000
 64.097     100.000
 64.107     100.000
 64.117     100.000
 64.127     100.000
 64.137     100.000
 64.147     100.000
 64.157     100.000
 64.167     100.000
 64.177     100.000
 64.187     100.000
 64.197     100.000
 64.207     100.000
 64.217     100.000
 64.227     100.000
 64.237     100.000
 64.247     100.000
 64.257     100.000
 64.268     100.000
 64.278     100.000
 64.288     100.000
 64.298     100.000
 64.308     100.000
 64.318     100.000
 64.328     100.000
 64.338     100.000
 64.348     100.000
 64.358     100.000
 64.368     100.000
 64.378     100.000
 64.388     100.000
 64.398     100.000
 64.408     100.000
 64.418     100.000
 64.428     100.000
 64.438     100.000
 64.448     100.000
 64.458     100.000
 64.468     100.000
 64.478     100.000
 64.488     100.000
 64.498     100.000
 64.508     100.000
 64.518     100.000
 64.528     100.000
 64.538     100.000
 64.548     100.000
 64.558     100.000
 64.568     100.000
 64.578     100.000
 64.588     100.000
 64.598     100.000
 64.608     100.000
 64.618     100.000
 64.628     100.000
 64.638     100.000
 64.648     100.000
 64.658     100.000
 64.668     100.000
 64.678     100.000
 64.688     100.000
 64.698     100.000
 64.708     100.000
 64.718     100.000
 64.728     100.000
 64.738     100.000
 64.748     100.000
 64.758     100.000
 64.768     100.000
 64.778     100.000
 64.788     100.000
 64.798     100.000
 64.808     100.000
 64.818     100.000
 64.829     100.000
 64.839     100.000
 64.849     100.000
 64.859     100.000
 64.869     100.000
 64.879     100.000
 64.889     100.000
 64.899     100.000
 64.909     100.000
 64.919     100.000
 64.929     100.000
 64.939     100.000
 64.949     100.000
 64.959     100.000
 64.969     100.000
 64.979     100.000
 64.989     100.000
 64.999     100.000
 65.009     100.000
 65.019     100.000
 65.029     100.000
 65.039     100.000
 65.049     100.000
 65.059     100.000
 65.069     100.000
 65.079     100.000
 65.089     100.000
 65.099     100.000
 65.109     100.000
 65.119     100.000
 65.129     100.000
 65.139     100.000
 65.149     100.000
 65.159     100.000
 65.169     100.000
 65.179     100.000
 65.189     100.000
 65.199     100.000
 65.209     100.000
 65.219     100.000
 65.229     100.000
 65.239     100.000
 65.249     100.000
 65.259     100.000
 65.269     100.000
 65.279     100.000
 65.289     100.000
 65.299     100.000
 65.309     100.000
 65.319     100.000
 65.329     100.003
 65.339     100.004
 65.349     100.006
 65.359     100.008
 65.369     100.010
 65.380     100.013
 65.390     100.017
 65.400     100.023
 65.410     100.030
 65.420     100.039
 65.430     100.050
 65.440     100.065
 65.450     100.083
 65.460     100.107
 65.470     100.136
 65.480     100.173
 65.490     100.218
 65.500     100.275
 65.510     100.344
 65.520     100.430
 65.530     100.535
 65.540     100.663
 65.550     100.818
 65.560     101.005
 65.570     101.230
 65.580     101.499
 65.590     101.821
 65.600     102.202
 65.610     102.652
 65.620     103.182
 65.630     103.802
 65.640     104.525
 65.650     105.365
 65.660     106.334
 65.670     107.449
 65.680     108.724
 65.690     110.177
 65.700     111.825
 65.710     113.684
 65.720     115.772
 65.730     118.106
 65.740     120.702
 65.750     123.576
 65.760     126.741
 65.770     130.210
 65.780     133.995
 65.790     138.098
 65.800     142.525
 65.810     147.277
 65.820     152.349
 65.830     157.734
 65.840     163.418
 65.850     169.382
 65.860     175.604
 65.870     182.054
 65.880     188.698
 65.890     195.497
 65.900     202.405
 65.910     209.379
 65.920     216.354
 65.930     223.279
 65.941     230.094
 65.951     236.736
 65.961     243.141
 65.971     249.248
 65.981     254.992
 65.991     260.313
 66.001     265.153
 66.011     269.459
 66.021     273.181
 66.031     276.279
 66.041     278.712
 66.051     280.453
 66.061     281.482
 66.071     281.787
 66.081     281.364
 66.091     280.218
 66.101     278.362
 66.111     275.819
 66.121     272.619
 66.131     268.799
 66.141     264.403
 66.151     259.481
 66.161     254.083
 66.171     248.275
 66.181     242.116
 66.191     235.667
 66.201     228.993
 66.211     222.157
 66.221     215.219
 66.231     208.241
 66.241     201.279
 66.251     194.385
 66.261     187.609
 66.271     180.994
 66.281     174.578
 66.291     168.392
 66.301     162.471
 66.311     156.835
 66.321     151.501
 66.331     146.480
 66.341     141.781
 66.351     137.407
 66.361     133.357
 66.371     129.626
 66.381     126.207
 66.391     123.090
 66.401     120.262
 66.411     117.708
 66.421     115.415
 66.431     113.366
 66.441     111.542
 66.451     109.928
 66.461     108.505
 66.471     107.257
 66.481     106.167
 66.492     105.220
 66.502     104.401
 66.512     103.695
 66.522     103.090
 66.532     102.574
 66.542     102.135
 66.552     101.764
 66.562     101.452
 66.572     101.190
 66.582     100.972
 66.592     100.790
 66.602     100.640
 66.612     100.516
 66.622     100.415
 66.632     100.332
 66.642     100.265
 66.652     100.210
 66.662     100.166
 66.672     100.131
 66.682     100.103
 66.692     100.080
 66.702     100.062
 66.712     100.048
 66.722     100.037
 66.732     100.029
 66.742     100.022
 66.752     100.017
 66.762     100.013
 66.772     100.010
 66.782     100.007
 66.792     100.005
 66.802     100.004
 66.812     100.003
 66.822     100.000
 66.832     100.000
 66.842     100.000
 66.852     100.000
 66.862     100.000
 66.872     100.000
 66.882     100.000
 66.892     100.000
 66.902     100.000
 66.912     100.000
 66.922     100.000
 66.932     100.000
 66.942     100.000
 66.952     100.000
 66.962     100.000
 66.972     100.000
 66.982     100.000
 66.992     100.000
 67.002     100.000
 67.012     100.000
 67.022     100.000
 67.032     100.000
 67.042     100.000
 67.053     100.000
 67.063     100.000
 67.073     100.000
 67.083     100.000
 67.093     100.000
 67.103     100.000
 67.113     100.000
 67.123     100.000
 67.133     100.000
 67.143     100.000
 67.153     100.000
 67.163     100.000
 67.173     100.000
 67.183     100.000
 67.193     100.000
 67.203     100.000
 67.213     100.000
 67.223     100.000
 67.233     100.000
 67.243     100.000
 67.253     100.000
 67.263     100.000
 67.273     100.000
 67.283     100.000
 67.293     100.000
 67.303     100.000
 67.313     100.000
 67.323     100.000
 67.333     100.000
 67.343     100.000
 67.353     100.000
 67.363     100.000
 67.373     100.000
 67.383     100.000
 67.393     100.000
 67.403     100.000
 67.413     100.000
 67.423     100.000
 67.433     100.000
 67.443     100.000
 67.453     100.000
 67.463     100.000
 67.473     100.000
 67.483     100.000
 67.493     100.000
 67.503     100.000
 67.513     100.000
 67.523     100.000
 67.533     100.000
 67.543     100.000
 67.553     100.000
 67.563     100.000
 67.573     100.000
 67.583     100.000
 67.593     100.000
 67.604     100.000
 67.614     100.000
 67.624     100.000
 67.634     100.000
 67.644     100.000
 67.654     100.000
 67.664     100.000
 67.674     100.000
 67.684     100.000
 67.694     100.000
 67.704     100.000
 67.714     100.000
 67.724     100.000
 67.734     100.000
 67.744     100.000
 67.754     100.000
 67.764     100.000
 67.774     100.000
 67.784     100.000
 67.794     100.000
 67.804     100.000
 67.814     100.000
 67.824     100.000
 67.834     100.000
 67.844     100.000
 67.854     100.000
 67.864     100.000
 67.874     100.000
 67.884     100.000
 67.894     100.000
 67.904     100.000
 67.914     100.000
 67.924     100.000
 67.934     100.000
 67.944     100.000
 67.954     100.000
 67.964     100.000
 67.974     100.000
 67.984     100.000
 67.994     100.000
 68.004     100.000
 68.014     100.000
 68.024     100.000
 68.034     100.000
 68.044     100.000
 68.054     100.000
 68.064     100.000
 68.074     100.000
 68.084     100.000
 68.094     100.000
 68.104     100.000
 68.114     100.000
 68.124     100.000
 68.134     100.000
 68.144     100.000
 68.154     100.000
 68.165     100.000
 68.175     100.000
 68.185     100.000
 68.195     100.000
 68.205     100.000
 68.215     100.000
 68.225     100.000
 68.235     100.000
 68.245     100.000
 68.255     100.000
 68.265     100.000
 68.275     100.000
 68.285     100.000
 68.295     100.000
 68.305     100.000
 68.315     100.000
 68.325     100.000
 68.335     100.000
 68.345     100.000
 68.355     100.000
 68.365     100.000
 68.375     100.000
 68.385     100.000
 68.395     100.000
 68.405     100.000
 68.415     100.000
 68.425     100.000
 68.435     100.000
 68.445     100.000
 68.455     100.000
 68.465     100.000
 68.475     100.000
 68.485     100.000
 68.495     100.000
 68.505     100.000
 68.515     100.000
 68.525     100.000
 68.535     100.000
 68.545     100.000
 68.555     100.000
 68.565     100.000
 68.575     100.000
 68.585     100.000
 68.595     100.000
 68.605     100.000
 68.615     100.000
 68.625     100.000
 68.635     100.000
 68.645     100.000
 68.655     100.000
 68.665     100.000
 68.675     100.000
 68.685     100.000
 68.695     100.000
 68.705     100.000
 68.715     100.000
 68.726     100.000
 68.736     100.000
 68.746     100.000
 68.756     100.000
 68.766     100.000
 68.776     100.000
 68.786     100.000
 68.796     100.000
 68.806     100.000
 68.816     100.000
 68.826     100.000
 68.836     100.000
 68.846     100.000
 68.856     100.000
 68.866     100.000
 68.876     100.000
 68.886     100.000
 68.896     100.000
 68.906     100.000
 68.916     100.000
 68.926     100.000
 68.936     100.000
 68.946     100.000
 68.956     100.000
 68.966     100.000
 68.976     100.000
 68.986     100.000
 68.996     100.000
 69.006     100.000
 69.016     100.000
 69.026     100.000
 69.036     100.000
 69.046     100.000
 69.056     100.000
 69.066     100.000
 69.076     100.000
 69.086     100.000
 69.096     100.000
 69.106     100.000
 69.116     100.000
 69.126     100.000
 69.136     100.000
 69.146     100.000
 69.156     100.000
 69.166     100.000
 69.176     100.000
 69.186     100.000
 69.196     100.000
 69.206     100.000
 69.216     100.000
 69.226     100.000
 69.236     100.000
 69.246     100.000
 69.256     100.000
 69.266     100.000
 69.277     100.000
 69.287     100.000
 69.297     100.000
 69.307     100.000
 69.317     100.000
 69.327     100.000
 69.337     100.000
 69.347     100.002
 69.357     100.002
 69.367     100.003
 69.377     100.004
 69.387     100.005
 69.397     100.006
 69.407     100.008
 69.417     100.010
 69.427     100.013
 69.437     100.017
 69.447     100.022
 69.457     100.028
 69.467     100.035
 69.477     100.044
 69.487     100.056
 69.497     100.070
 69.507     100.087
 69.517     100.108
 69.527     100.134
 69.537     100.166
 69.547     100.204
 69.557     100.251
 69.567     100.307
 69.577     100.374
 69.587     100.454
 69.597     100.550
 69.607     100.663
 69.617     100.797
 69.627     100.955
 69.637     101.140
 69.647     101.357
 69.657     101.609
 69.667     101.902
 69.677     102.240
 69.687     102.629
 69.697     103.075
 69.707     103.584
 69.717     104.164
 69.727     104.820
 69.737     105.561
 69.747     106.393
 69.757     107.325
 69.767     108.364
 69.777     109.518
 69.787     110.793
 69.797     112.198
 69.807     113.738
 69.817     115.419
 69.827     117.248
 69.838     119.226
 69.848     121.357
 69.858     123.643
 69.868     126.084
 69.878     128.678
 69.888     131.421
 69.898     134.309
 69.908     137.334
 69.918     140.486
 69.928     143.754
 69.938     147.123
 69.948     150.580
 69.958     154.101
 69.968     157.668
 69.978     161.260
 69.988     164.851
 69.998     168.418
 70.008     171.933
 70.018     175.370
 70.028     178.699
 70.038     181.893
 70.048     184.924
 70.058     187.766
 70.068     190.390
 70.078     192.776
 70.088     194.895
 70.098     196.730
 70.108     198.262
 70.118     199.475
 70.128     200.357
 70.138     200.900
 70.148     201.098
 70.158     200.948
 70.168     200.452
 70.178     199.616
 70.188     198.447
 70.198     196.958
 70.208     195.163
 70.218     193.081
 70.228     190.732
 70.238     188.139
 70.248     185.326
 70.258     182.319
 70.268     179.145
 70.278     175.833
 70.288     172.410
 70.298     168.904
 70.308     165.342
 70.318     161.752
 70.328     158.157
 70.338     154.585
 70.348     151.056
 70.358     147.592
 70.368     144.210
 70.378     140.928
 70.389     137.759
 70.399     134.716
 70.409     131.809
 70.419     129.045
 70.429     126.430
 70.439     123.968
 70.449     121.661
 70.459     119.507
 70.469     117.508
 70.479     115.661
 70.489     113.960
 70.499     112.401
 70.509     110.978
 70.519     109.685
 70.529     108.515
 70.539     107.461
 70.549     106.515
 70.559     105.669
 70.569     104.916
 70.579     104.248
 70.589     103.659
 70.599     103.140
 70.609     102.686
 70.619     102.290
 70.629     101.945
 70.639     101.647
 70.649     101.389
 70.659     101.168
 70.669     100.979
 70.679     100.817
 70.689     100.680
 70.699     100.564
 70.709     100.466
 70.719     100.384
 70.729     100.315
 70.739     100.258
 70.749     100.210
 70.759     100.171
 70.769     100.138
 70.779     100.111
 70.789     100.090
 70.799     100.072
 70.809     100.057
 70.819     100.046
 70.829     100.036
 70.839     100.029
 70.849     100.023
 70.859     100.018
 70.869     100.014
 70.879     100.011
 70.889     100.008
 70.899     100.006
 70.909     100.005
 70.919     100.004
 70.929     100.003
 70.939     100.002
 70.950     100.002
 70.960     100.000
 70.970     100.000
 70.980     100.000
 70.990     100.000
 71.000     100.000
 71.010     100.000
 71.020     100.000
 71.030     100.000
 71.040     100.000
 71.050     100.000
 71.060     100.000
 71.070     100.000
 71.080     100.000
 71.090     100.000
 71.100     100.000
 71.110     100.000
 71.120     100.000
 71.130     100.000
 71.140     100.000
 71.150     100.000
 71.160     100.000
 71.170     100.000
 71.180     100.000
 71.190     100.000
 71.200     100.000
 71.210     100.000
 71.220     100.000
 71.230     100.000
 71.240     100.000
 71.250     100.000
 71.260     100.000
 71.270     100.000
 71.280     100.000
 71.290     100.000
 71.300     100.000
 71.310     100.000
 71.320     100.000
 71.330     100.000
 71.340     100.000
 71.350     100.000
 71.360     100.000
 71.370     100.000
 71.380     100.000
 71.390     100.000
 71.400     100.000
 71.410     100.000
 71.420     100.000
 71.430     100.000
 71.440     100.000
 71.450     100.000
 71.460     100.000
 71.470     100.000
 71.480     100.000
 71.490     100.000
 71.501     100.000
 71.511     100.000
 71.521     100.000
 71.531     100.000
 71.541     100.000
 71.551     100.000
 71.561     100.000
 71.571     100.000
 71.581     100.000
 71.591     100.000
 71.601     100.000
 71.611     100.000
 71.621     100.000
 71.631     100.000
 71.641     100.000
 71.651     100.000
 71.661     100.000
 71.671     100.000
 71.681     100.000
 71.691     100.000
 71.701     100.000
 71.711     100.000
 71.721     100.000
 71.731     100.000
 71.741     100.000
 71.751     100.000
 71.761     100.000
 71.771     100.000
 71.781     100.000
 71.791     100.000
 71.801     100.000
 71.811     100.000
 71.821     100.000
 71.831     100.000
 71.841     100.000
 71.851     100.000
 71.861     100.000
 71.871     100.000
 71.881     100.000
 71.891     100.000
 71.901     100.000
 71.911     100.000
 71.921     100.000
 71.931     100.000
 71.941     100.000
 71.951     100.000
 71.961     100.000
 71.971     100.000
 71.981     100.000
 71.991     100.000
 72.001     100.000
 72.011     100.000
 72.021     100.000
 72.031     100.000
 72.041     100.000
 72.051     100.000
 72.062     100.000
 72.072     100.000
 72.082     100.000
 72.092     100.000
 72.102     100.000
 72.112     100.000
 72.122     100.000
 72.132     100.000
 72.142     100.000
 72.152     100.000
 72.162     100.000
 72.172     100.000
 72.182     100.000
 72.192     100.000
 72.202     100.000
 72.212     100.000
 72.222     100.000
 72.232     100.000
 72.242     100.000
 72.252     100.000
 72.262     100.000
 72.272     100.000
 72.282     100.000
 72.292     100.000
 72.302     100.000
 72.312     100.000
 72.322     100.000
 72.332     100.000
 72.342     100.000
 72.352     100.000
 72.362     100.000
 72.372     100.000
 72.382     100.000
 72.392     100.000
 72.402     100.000
 72.412     100.000
 72.422     100.000
 72.432     100.000
 72.442     100.000
 72.452     100.000
 72.462     100.000
 72.472     100.000
 72.482     100.000
 72.492     100.000
 72.502     100.000
 72.512     100.000
 72.522     100.000
 72.532     100.000
 72.542     100.000
 72.552     100.000
 72.562     100.000
 72.572     100.000
 72.582     100.000
 72.592     100.000
 72.602     100.000
 72.613     100.000
 72.623     100.000
 72.633     100.000
 72.643     100.000
 72.653     100.000
 72.663     100.000
 72.673     100.000
 72.683     100.000
 72.693     100.000
 72.703     100.000
 72.713     100.000
 72.723     100.000
 72.733     100.000
 72.743     100.000
 72.753     100.000
 72.763     100.000
 72.773     100.000
 72.783     100.000
 72.793     100.000
 72.803     100.000
 72.813     100.000
 72.823     100.000
 72.833     100.000
 72.843     100.000
 72.853     100.000
 72.863     100.000
 72.873     100.000
 72.883     100.000
 72.893     100.000
 72.903     100.000
 72.913     100.000
 72.923     100.000
 72.933     100.000
 72.943     100.000
 72.953     100.000
 72.963     100.000
 72.973     100.000
 72.983     100.000
 72.993     100.000
 73.003     100.000
 73.013     100.000
 73.023     100.000
 73.033     100.000
 73.043     100.000
 73.053     100.000
 73.063     100.000
 73.073     100.000
 73.083     100.000
 73.093     100.000
 73.103     100.000
 73.113     100.000
 73.123     100.000
 73.133     100.000
 73.143     100.000
 73.153     100.000
 73.163     100.000
 73.174     100.000
 73.184     100.000
 73.194     100.000
 73.204     100.000
 73.214     100.000
 73.224     100.000
 73.234     100.000
 73.244     100.000
 73.254     100.000
 73.264     100.001
 73.274     100.002
 73.284     100.002
 73.294     100.003
 73.304     100.004
 73.314     100.005
 73.324     100.006
 73.334     100.008
 73.344     100.010
 73.354     100.013
 73.364     100.016
 73.374     100.020
 73.384     100.025
 73.394     100.031
 73.404     100.039
 73.414     100.048
 73.424     100.059
 73.434     100.073
 73.444     100.089
 73.454     100.109
 73.464     100.133
 73.474     100.161
 73.484     100.195
 73.494     100.236
 73.504     100.284
 73.514     100.341
 73.524     100.408
 73.534     100.487
 73.544     100.579
 73.554     100.687
 73.564     100.813
 73.574     100.959
 73.584     101.128
 73.594     101.322
 73.604     101.545
 73.614     101.801
 73.624     102.092
 73.634     102.424
 73.644     102.800
 73.654     103.224
 73.664     103.702
 73.674     104.238
 73.684     104.837
 73.694     105.505
 73.704     106.246
 73.714     107.066
 73.724     107.970
 73.735     108.962
 73.745     110.049
 73.755     111.234
 73.765     112.521
 73.775     113.914
 73.785     115.416
 73.795     117.030
 73.805     118.757
 73.815     120.597
 73.825     122.551
 73.835     124.617
 73.845     126.793
 73.855     129.074
 73.865     131.458
 73.875     133.934
 73.885     136.496
 73.895     139.136
 73.905     141.841
 73.915     144.601
 73.925     147.402
 73.935     150.230
 73.945     153.068
 73.955     155.900
 73.965     158.708
 73.975     161.475
 73.985     164.181
 73.995     166.809
 74.005     169.336
 74.015     171.745
 74.025     174.018
 74.035     176.136
 74.045     178.082
 74.055     179.840
 74.065     181.396
 74.075     182.736
 74.085     183.848
 74.095     184.722
 74.105     185.352
 74.115     185.732
 74.125     185.857
 74.135     185.728
 74.145     185.344
 74.155     184.710
 74.165     183.832
 74.175     182.716
 74.185     181.373
 74.195     179.814
 74.205     178.052
 74.215     176.103
 74.225     173.983
 74.235     171.708
 74.245     169.295
 74.255     166.766
 74.265     164.138
 74.275     161.431
 74.286     158.664
 74.296     155.855
 74.306     153.022
 74.316     150.184
 74.326     147.357
 74.336     144.557
 74.346     141.798
 74.356     139.093
 74.366     136.455
 74.376     133.892
 74.386     131.417
 74.396     129.037
 74.406     126.757
 74.416     124.583
 74.426     122.519
 74.436     120.567
 74.446     118.728
 74.456     117.003
 74.466     115.391
 74.476     113.891
 74.486     112.500
 74.496     111.213
 74.506     110.030
 74.516     108.946
 74.526     107.954
 74.536     107.052
 74.546     106.234
 74.556     105.494
 74.566     104.827
 74.576     104.229
 74.586     103.694
 74.596     103.217
 74.606     102.793
 74.616     102.418
 74.626     102.087
 74.636     101.796
 74.646     101.541
 74.656     101.319
 74.666     101.125
 74.676     100.956
 74.686     100.811
 74.696     100.686
 74.706     100.578
 74.716     100.486
 74.726     100.407
 74.736     100.340
 74.746     100.283
 74.756     100.235
 74.766     100.195
 74.776     100.161
 74.786     100.132
 74.796     100.109
 74.806     100.089
 74.816     100.072
 74.826     100.059
 74.836     100.048
 74.847     100.039
 74.857     100.031
 74.867     100.025
 74.877     100.020
 74.887     100.016
 74.897     100.013
 74.907     100.010
 74.917     100.008
 74.927     100.006
 74.937     100.005
 74.947     100.004
 74.957     100.003
 74.967     100.002
 74.977     100.002
 74.987     100.001
 74.997     100.000
 75.007     100.000
 75.017     100.000
 75.027     100.000
 75.037     100.000
 75.047     100.000
 75.057     100.000
 75.067     100.000
 75.077     100.000
 75.087     100.000
 75.097     100.000
 75.107     100.000
 75.117     100.000
 75.127     100.000
 75.137     100.000
 75.147     100.000
 75.157     100.000
 75.167     100.000
 75.177     100.000
 75.187     100.000
 75.197     100.000
 75.207     100.000
 75.217     100.000
 75.227     100.000
 75.237     100.000
 75.247     100.000
 75.257     100.000
 75.267     100.000
 75.277     100.000
 75.287     100.000
 75.297     100.000
 75.307     100.000
 75.317     100.000
 75.327     100.000
 75.337     100.000
 75.347     100.000
 75.357     100.000
 75.367     100.000
 75.377     100.000
 75.387     100.000
 75.398     100.000
 75.408     100.000
 75.418     100.000
 75.428     100.000
 75.438     100.000
 75.448     100.000
 75.458     100.000
 75.468     100.000
 75.478     100.000
 75.488     100.000
 75.498     100.000
 75.508     100.000
 75.518     100.000
 75.528     100.000
 75.538     100.000
 75.548     100.000
 75.558     100.000
 75.568     100.000
 75.578     100.000
 75.588     100.000
 75.598     100.000
 75.608     100.000
 75.618     100.000
 75.628     100.000
 75.638     100.000
 75.648     100.000
 75.658     100.000
 75.668     100.000
 75.678     100.000
 75.688     100.000
 75.698     100.000
 75.708     100.000
 75.718     100.000
 75.728     100.000
 75.738     100.000
 75.748     100.000
 75.758     100.000
 75.768     100.000
 75.778     100.000
 75.788     100.000
 75.798     100.000
 75.808     100.000
 75.818     100.000
 75.828     100.000
 75.838     100.000
 75.848     100.000
 75.858     100.000
 75.868     100.000
 75.878     100.000
 75.888     100.000
 75.898     100.000
 75.908     100.000
 75.918     100.000
 75.928     100.000
 75.938     100.000
 75.948     100.000
 75.959     100.000
 75.969     100.000
 75.979     100.000
 75.989     100.000
 75.999     100.000
 76.009     100.000
 76.019     100.000
 76.029     100.000
 76.039     100.000
 76.049     100.000
 76.059     100.000
 76.069     100.000
 76.079     100.000
 76.089     100.000
 76.099     100.000
 76.109     100.000
 76.119     100.000
 76.129     100.000
 76.139     100.000
 76.149     100.000
 76.159     100.000
 76.169     100.000
 76.179     100.000
 76.189     100.000
 76.199     100.000
 76.209     100.000
 76.219     100.000
 76.229     100.000
 76.239     100.000
 76.249     100.000
 76.259     100.000
 76.269     100.000
 76.279     100.000
 76.289     100.000
 76.299     100.000
 76.309     100.000
 76.319     100.000
 76.329     100.000
 76.339     100.000
 76.349     100.000
 76.359     100.000
 76.369     100.000
 76.379     100.000
 76.389     100.000
 76.399     100.000
 76.409     100.000
 76.419     100.000
 76.429     100.000
 76.439     100.000
 76.449     100.000
 76.459     100.000
 76.469     100.000
 76.479     100.000
 76.489     100.000
 76.499     100.000
 76.509     100.000
 76.520     100.000
 76.530     100.000
 76.540     100.000
 76.550     100.000
 76.560     100.000
 76.570     100.000
 76.580     100.000
 76.590     100.000
 76.600     100.000
 76.610     100.000
 76.620     100.000
 76.630     100.000
 76.640     100.000
 76.650     100.000
 76.660     100.000
 76.670     100.000
 76.680     100.000
 76.690     100.000
 76.700     100.000
 76.710     100.000
 76.720     100.000
 76.730     100.000
 76.740     100.000
 76.750     100.000
 76.760     100.000
 76.770     100.000
 76.780     100.000
 76.790     100.000
 76.800     100.000
 76.810     100.000
 76.820     100.000
 76.830     100.000
 76.840     100.000
 76.850     100.000
 76.860     100.000
 76.870     100.000
 76.880     100.000
 76.890     100.000
 76.900     100.000
 76.910     100.000
 76.920     100.000
 76.930     100.000
 76.940     100.000
 76.950     100.000
 76.960     100.000
 76.970     100.000
 76.980     100.000
 76.990     100.000
 77.000     100.000
 77.010     100.000
 77.020     100.000
 77.030     100.000
 77.040     100.000
 77.050     100.000
 77.060     100.000
 77.071     100.000
 77.081     100.000
 77.091     100.000
 77.101     100.001
 77.111     100.002
 77.121     100.002
 77.131     100.003
 77.141     100.003
 77.151     100.004
 77.161     100.005
 77.171     100.006
 77.181     100.008
 77.191     100.010
 77.201     100.012
 77.211     100.015
 77.221     100.018
 77.231     100.022
 77.241     100.027
 77.251     100.033
 77.261     100.041
 77.271     100.050
 77.281     100.060
 77.291     100.073
 77.301     100.088
 77.311     100.106
 77.321     100.127
 77.331     100.152
 77.341     100.182
 77.351     100.216
 77.361     100.257
 77.371     100.305
 77.381     100.360
 77.391     100.425
 77.401     100.499
 77.411     100.586
 77.421     100.685
 77.431     100.799
 77.441     100.930
 77.451     101.080
 77.461     101.250
 77.471     101.444
 77.481     101.663
 77.491     101.911
 77.501     102.190
 77.511     102.503
 77.521     102.853
 77.531     103.244
 77.541     103.679
 77.551     104.162
 77.561     104.696
 77.571     105.285
 77.581     105.932
 77.591     106.641
 77.601     107.416
 77.611     108.260
 77.621     109.176
 77.632     110.167
 77.642     111.237
 77.652     112.387
 77.662     113.620
 77.672     114.937
 77.682     116.339
 77.692     117.826
 77.702     119.398
 77.712     121.054
 77.722     122.793
 77.732     124.612
 77.742     126.507
 77.752     128.475
 77.762     130.509
 77.772     132.605
 77.782     134.757
 77.792     136.953
 77.802     139.187
 77.812     141.448
 77.822     143.727
 77.832     146.012
 77.842     148.291
 77.852     150.553
 77.862     152.784
 77.872     154.972
 77.882     157.102
 77.892     159.162
 77.902     161.138
 77.912     163.019
 77.922     164.788
 77.932     166.435
 77.942     167.948
 77.952     169.317
 77.962     170.530
 77.972     171.580
 77.982     172.458
 77.992     173.157
 78.002     173.673
 78.012     174.000
 78.022     174.138
 78.032     174.084
 78.042     173.839
 78.052     173.405
 78.062     172.785
 78.072     171.984
 78.082     171.009
 78.092     169.866
 78.102     168.564
 78.112     167.113
 78.122     165.523
 78.132     163.805
 78.142     161.972
 78.152     160.037
 78.162     158.011
 78.172     155.909
 78.183     153.745
 78.193     151.531
 78.203     149.281
 78.213     147.008
 78.223     144.724
 78.233     142.441
 78.243     140.171
 78.253     137.924
 78.263     135.710
 78.273     133.539
 78.283     131.418
 78.293     129.355
 78.303     127.357
 78.313     125.430
 78.323     123.577
 78.333     121.803
 78.343     120.110
 78.353     118.501
 78.363     116.977
 78.373     115.538
 78.383     114.185
 78.393     112.915
 78.403     111.730
 78.413     110.624
 78.423     109.599
 78.433     108.650
 78.443     107.775
 78.453     106.971
 78.463     106.233
 78.473     105.560
 78.483     104.946
 78.493     104.389
 78.503     103.884
 78.513     103.429
 78.523     103.019
 78.533     102.651
 78.543     102.322
 78.553     102.028
 78.563     101.768
 78.573     101.536
 78.583     101.332
 78.593     101.152
 78.603     100.993
 78.613     100.854
 78.623     100.733
 78.633     100.627
 78.643     100.536
 78.653     100.456
 78.663     100.387
 78.673     100.328
 78.683     100.277
 78.693     100.233
 78.703     100.196
 78.713     100.164
 78.723     100.138
 78.733     100.115
 78.744     100.095
 78.754     100.079
 78.764     100.065
 78.774     100.054
 78.784     100.045
 78.794     100.037
 78.804     100.030
 78.814     100.024
 78.824     100.020
 78.834     100.016
 78.844     100.013
 78.854     100.011
 78.864     100.009
 78.874     100.007
 78.884     100.006
 78.894     100.004
 78.904     100.004
 78.914     100.003
 78.924     100.002
 78.934     100.002
 78.944     100.001
 78.954     100.000
 78.964     100.000
 78.974     100.000
 78.984     100.000
 78.994     100.000
 79.004     100.000
 79.014     100.000
 79.024     100.000
 79.034     100.000
 79.044     100.000
 79.054     100.000
 79.064     100.000
 79.074     100.000
 79.084     100.000
 79.094     100.000
 79.104     100.000
 79.114     100.000
 79.124     100.000
 79.134     100.000
 79.144     100.000
 79.154     100.000
 79.164     100.000
 79.174     100.000
 79.184     100.000
 79.194     100.000
 79.204     100.000
 79.214     100.000
 79.224     100.000
 79.234     100.000
 79.244     100.000
 79.254     100.000
 79.264     100.000
 79.274     100.000
 79.284     100.000
 79.295     100.000
 79.305     100.000
 79.315     100.000
 79.325     100.000
 79.335     100.000
 79.345     100.000
 79.355     100.000
 79.365     100.000
 79.375     100.000
 79.385     100.000
 79.395     100.000
 79.405     100.000
 79.415     100.000
 79.425     100.000
 79.435     100.000
 79.445     100.000
 79.455     100.000
 79.465     100.000
 79.475     100.000
 79.485     100.000
 79.495     100.000
 79.505     100.000
 79.515     100.000
 79.525     100.000
 79.535     100.000
 79.545     100.000
 79.555     100.000
 79.565     100.000
 79.575     100.000
 79.585     100.000
 79.595     100.000
 79.605     100.000
 79.615     100.000
 79.625     100.000
 79.635     100.000
 79.645     100.000
 79.655     100.000
 79.665     100.000
 79.675     100.000
 79.685     100.000
 79.695     100.000
 79.705     100.000
 79.715     100.000
 79.725     100.000
 79.735     100.000
 79.745     100.000
 79.755     100.000
 79.765     100.000
 79.775     100.000
 79.785     100.000
 79.795     100.000
 79.805     100.000
 79.815     100.000
 79.825     100.000
 79.835     100.000
 79.845     100.000
 79.856     100.000
 79.866     100.000
 79.876     100.000
 79.886     100.000
 79.896     100.000
 79.906     100.000
 79.916     100.000
 79.926     100.000
 79.936     100.000
 79.946     100.000
 79.956     100.000
 79.966     100.000
 79.976     100.000
 79.986     100.000
 79.996     100.000
 80.006     100.000
 80.016     100.000
 80.026     100.000
 80.036     100.000
 80.046     100.000
 80.056     100.000
 80.066     100.000
 80.076     100.000
 80.086     100.000
 80.096     100.000
 80.106     100.000
 80.116     100.000
 80.126     100.000
 80.136     100.000
 80.146     100.000
 80.156     100.000
 80.166     100.000
 80.176     100.000
 80.186     100.000
 80.196     100.000
 80.206     100.000
 80.216     100.000
 80.226     100.000
 80.236     100.000
 80.246     100.000
 80.256     100.000
 80.266     100.000
 80.276     100.000
 80.286     100.000
 80.296     100.000
 80.306     100.000
 80.316     100.000
 80.326     100.000
 80.336     100.000
 80.346     100.000
 80.356     100.000
 80.366     100.000
 80.376     100.000
 80.386     100.000
 80.396     100.000
 80.407     100.000
 80.417     100.000
 80.427     100.000
 80.437     100.000
 80.447     100.000
 80.457     100.000
 80.467     100.000
 80.477     100.000
 80.487     100.000
 80.497     100.000
 80.507     100.000
 80.517     100.000
 80.527     100.000
 80.537     100.000
 80.547     100.000
 80.557     100.000
 80.567     100.000
 80.577     100.000
 80.587     100.000
 80.597     100.000
 80.607     100.000
 80.617     100.000
 80.627     100.000
 80.637     100.000
 80.647     100.000
 80.657     100.000
 80.667     100.000
 80.677     100.000
 80.687     100.000
 80.697     100.000
 80.707     100.000
 80.717     100.000
 80.727     100.000
 80.737     100.000
 80.747     100.000
 80.757     100.000
 80.767     100.000
 80.777     100.000
 80.787     100.000
 80.797     100.000
 80.807     100.000
 80.817     100.000
 80.827     100.000
 80.837     100.000
 80.847     100.000
 80.857     100.000
 80.867     100.000
 80.877     100.003
 80.887     100.004
 80.897     100.005
 80.907     100.006
 80.917     100.008
 80.927     100.009
 80.937     100.012
 80.947     100.014
 80.957     100.018
 80.968     100.022
 80.978     100.026
 80.988     100.032
 80.998     100.039
 81.008     100.048
 81.018     100.058
 81.028     100.070
 81.038     100.084
 81.048     100.102
 81.058     100.122
 81.068     100.146
 81.078     100.175
 81.088     100.209
 81.098     100.249
 81.108     100.296
 81.118     100.350
 81.128     100.414
 81.138     100.489
 81.148     100.576
 81.158     100.676
 81.168     100.793
 81.178     100.927
 81.188     101.081
 81.198     101.259
 81.208     101.462
 81.218     101.694
 81.228     101.959
 81.238     102.260
 81.248     102.601
 81.258     102.987
 81.268     103.423
 81.278     103.913
 81.288     104.463
 81.298     105.080
 81.308     105.769
 81.318     106.536
 81.328     107.389
 81.338     108.334
 81.348     109.379
 81.358     110.531
 81.368     111.798
 81.378     113.187
 81.388     114.707
 81.398     116.365
 81.408     118.170
 81.418     120.127
 81.428     122.246
 81.438     124.532
 81.448     126.994
 81.458     129.633
 81.468     132.458
 81.478     135.472
 81.488     138.679
 81.498     142.081
 81.508     145.679
 81.519     149.472
 81.529     153.461
 81.539     157.640
 81.549     162.007
 81.559     166.554
 81.569     171.273
 81.579     176.159
 81.589     181.193
 81.599     186.365
 81.609     191.659
 81.619     197.059
 81.629     202.545
 81.639     208.098
 81.649     213.695
 81.659     219.312
 81.669     224.925
 81.679     230.507
 81.689     236.032
 81.699     241.476
 81.709     246.802
 81.719     251.985
 81.729     256.997
 81.739     261.809
 81.749     266.394
 81.759     270.722
 81.769     274.769
 81.779     278.510
 81.789     281.919
 81.799     284.977
 81.809     287.662
 81.819     289.958
 81.829     291.850
 81.839     293.323
 81.849     294.369
 81.859     294.980
 81.869     295.153
 81.879     294.886
 81.889     294.182
 81.899     293.044
 81.909     291.481
 81.919     289.503
 81.929     287.123
 81.939     284.358
 81.949     281.221
 81.959     277.739
 81.969     273.931
 81.979     269.822
 81.989     265.437
 81.999     260.801
 82.009     255.944
 82.019     250.893
 82.029     245.677
 82.039     240.325
 82.049     234.865
 82.059     229.325
 82.069     223.734
 82.080     218.114
 82.090     212.499
 82.100     206.909
 82.110     201.369
 82.120     195.899
 82.130     190.521
 82.140     185.251
 82.150     180.108
 82.160     175.105
 82.170     170.256
 82.180     165.573
 82.190     161.063
 82.200     156.736
 82.210     152.594
 82.220     148.647
 82.230     144.895
 82.240     141.339
 82.250     137.979
 82.260     134.814
 82.270     131.840
 82.280     129.055
 82.290     126.454
 82.300     124.031
 82.310     121.782
 82.320     119.698
 82.330     117.772
 82.340     116.000
 82.350     114.372
 82.360     112.880
 82.370     111.518
 82.380     110.276
 82.390     109.147
 82.400     108.124
 82.410     107.200
 82.420     106.366
 82.430     105.616
 82.440     104.943
 82.450     104.341
 82.460     103.804
 82.470     103.325
 82.480     102.901
 82.490     102.525
 82.500     102.192
 82.510     101.899
 82.520     101.642
 82.530     101.416
 82.540     101.219
 82.550     101.047
 82.560     100.897
 82.570     100.766
 82.580     100.654
 82.590     100.556
 82.600     100.472
 82.610     100.400
 82.620     100.338
 82.631     100.285
 82.641     100.240
 82.651     100.201
 82.661     100.169
 82.671     100.141
 82.681     100.118
 82.691     100.098
 82.701     100.081
 82.711     100.067
 82.721     100.056
 82.731     100.046
 82.741     100.038
 82.751     100.031
 82.761     100.025
 82.771     100.021
 82.781     100.017
 82.791     100.014
 82.801     100.011
 82.811     100.009
 82.821     100.007
 82.831     100.006
 82.841     100.005
 82.851     100.004
 82.861     100.003
 82.871     100.000
 82.881     100.000
 82.891     100.000
 82.901     100.000
 82.911     100.000
 82.921     100.000
 82.931     100.000
 82.941     100.000
 82.951     100.000
 82.961     100.000
 82.971     100.000
 82.981     100.000
 82.991     100.000
 83.001     100.000
 83.011     100.000
 83.021     100.000
 83.031     100.000
 83.041     100.000
 83.051     100.000
 83.061     100.000
 83.071     100.000
 83.081     100.000
 83.091     100.000
 83.101     100.000
 83.111     100.000
 83.121     100.000
 83.131     100.000
 83.141     100.000
 83.151     100.000
 83.161     100.000
 83.171     100.000
 83.181     100.000
 83.192     100.000
 83.202     100.000
 83.212     100.000
 83.222     100.000
 83.232     100.000
 83.242     100.000
 83.252     100.000
 83.262     100.000
 83.272     100.000
 83.282     100.000
 83.292     100.000
 83.302     100.000
 83.312     100.000
 83.322     100.000
 83.332     100.000
 83.342     100.000
 83.352     100.000
 83.362     100.000
 83.372     100.000
 83.382     100.000
 83.392     100.000
 83.402     100.000
 83.412     100.000
 83.422     100.000
 83.432     100.000
 83.442     100.000
 83.452     100.000
 83.462     100.000
 83.472     100.000
 83.482     100.000
 83.492     100.000
 83.502     100.000
 83.512     100.000
 83.522     100.000
 83.532     100.000
 83.542     100.000
 83.552     100.000
 83.562     100.000
 83.572     100.000
 83.582     100.000
 83.592     100.000
 83.602     100.000
 83.612     100.000
 83.622     100.000
 83.632     100.000
 83.642     100.000
 83.652     100.000
 83.662     100.000
 83.672     100.000
 83.682     100.000
 83.692     100.000
 83.702     100.000
 83.712     100.000
 83.722     100.000
 83.732     100.000
 83.743     100.000
 83.753     100.000
 83.763     100.000
 83.773     100.000
 83.783     100.000
 83.793     100.000
 83.803     100.000
 83.813     100.000
 83.823     100.000
 83.833     100.000
 83.843     100.000
 83.853     100.000
 83.863     100.000
 83.873     100.000
 83.883     100.000
 83.893     100.000
 83.903     100.000
 83.913     100.000
 83.923     100.000
 83.933     100.000
 83.943     100.000
 83.953     100.000
 83.963     100.000
 83.973     100.000
 83.983     100.000
 83.993     100.000
 84.003     100.000
 84.013     100.000
 84.023     100.000
 84.033     100.000
 84.043     100.000
 84.053     100.000
 84.063     100.000
 84.073     100.000
 84.083     100.000
 84.093     100.000
 84.103     100.000
 84.113     100.000
 84.123     100.000
 84.133     100.000
 84.143     100.000
 84.153     100.000
 84.163     100.000
 84.173     100.000
 84.183     100.000
 84.193     100.000
 84.203     100.000
 84.213     100.000
 84.223     100.000
 84.233     100.000
 84.243     100.000
 84.253     100.000
 84.263     100.000
 84.273     100.000
 84.283     100.000
 84.293     100.000
 84.304     100.000
 84.314     100.000
 84.324     100.000
 84.334     100.000
 84.344     100.000
 84.354     100.000
 84.364     100.000
 84.374     100.000
 84.384     100.000
 84.394     100.000
 84.404     100.000
 84.414     100.000
 84.424     100.000
 84.434     100.000
 84.444     100.000
 84.454     100.000
 84.464     100.000
 84.474     100.000
 84.484     100.000
 84.494     100.000
 84.504     100.000
 84.514     100.000
 84.524     100.000
 84.534     100.000
 84.544     100.000
 84.554     100.000
 84.564     100.000
 84.574     100.000
 84.584     100.000
 84.594     100.000
 84.604     100.000
 84.614     100.000
 84.624     100.000
 84.634     100.000
 84.644     100.000
 84.654     100.000
 84.664     100.000
 84.674     100.000
 84.684     100.000
 84.694     100.000
 84.704     100.000
 84.714     100.000
 84.724     100.000
 84.734     100.000
 84.744     100.000
 84.754     100.000
 84.764     100.000
 84.774     100.000
 84.784     100.000
 84.794     100.000
 84.804     100.000
 84.814     100.000
 84.824     100.000
 84.834     100.000
 84.844     100.000
 84.854     100.000
 84.865     100.000
 84.875     100.000
 84.885     100.000
 84.895     100.000
 84.905     100.000
 84.915     100.000
 84.925     100.000
 84.935     100.000
 84.945     100.000
 84.955     100.000
 84.965     100.000
 84.975     100.000
 84.985     100.000
 84.995     100.000
 85.005     100.000
 85.015     100.000
 85.025     100.000
 85.035     100.000
 85.045     100.000
 85.055     100.000
 85.065     100.000
 85.075     100.000
 85.085     100.000
 85.095     100.000
 85.105     100.000
 85.115     100.000
 85.125     100.000
 85.135     100.000
 85.145     100.000
 85.155     100.000
 85.165     100.000
 85.175     100.000
 85.185     100.000
 85.195     100.000
 85.205     100.000
 85.215     100.000
 85.225     100.000
 85.235     100.000
 85.245     100.000
 85.255     100.000
 85.265     100.000
 85.275     100.000
 85.285     100.000
 85.295     100.000
 85.305     100.000
 85.315     100.000
 85.325     100.000
 85.335     100.000
 85.345     100.000
 85.355     100.000
 85.365     100.000
 85.375     100.000
 85.385     100.000
 85.395     100.000
 85.405     100.000
 85.416     100.000
 85.426     100.000
 85.436     100.000
 85.446     100.000
 85.456     100.000
 85.466     100.000
 85.476     100.000
 85.486     100.000
 85.496     100.000
 85.506     100.000
 85.516     100.000
 85.526     100.000
 85.536     100.000
 85.546     100.000
 85.556     100.000
 85.566     100.000
 85.576     100.000
 85.586     100.000
 85.596     100.000
 85.606     100.000
 85.616     100.000
 85.626     100.000
 85.636     100.000
 85.646     100.000
 85.656     100.000
 85.666     100.000
 85.676     100.000
 85.686     100.000
 85.696     100.000
 85.706     100.000
 85.716     100.000
 85.726     100.000
 85.736     100.000
 85.746     100.000
 85.756     100.000
 85.766     100.000
 85.776     100.000
 85.786     100.000
 85.796     100.000
 85.806     100.000
 85.816     100.000
 85.826     100.000
 85.836     100.000
 85.846     100.000
 85.856     100.000
 85.866     100.000
 85.876     100.000
 85.886     100.000
 85.896     100.000
 85.906     100.000
 85.916     100.000
 85.926     100.000
 85.936     100.000
 85.946     100.000
 85.956     100.000
 85.966     100.000
 85.977     100.000
 85.987     100.000
 85.997     100.000
 86.007     100.000
 86.017     100.000
 86.027     100.000
 86.037     100.000
 86.047     100.000
 86.057     100.000
 86.067     100.000
 86.077     100.000
 86.087     100.000
 86.097     100.000
 86.107     100.000
 86.117     100.000
 86.127     100.000
 86.137     100.000
 86.147     100.000
 86.157     100.000
 86.167     100.000
 86.177     100.000
 86.187     100.000
 86.197     100.000
 86.207     100.000
 86.217     100.000
 86.227     100.000
 86.237     100.000
 86.247     100.000
 86.257     100.000
 86.267     100.000
 86.277     100.000
 86.287     100.000
 86.297     100.000
 86.307     100.000
 86.317     100.000
 86.327     100.000
 86.337     100.000
 86.347     100.000
 86.357     100.000
 86.367     100.000
 86.377     100.000
 86.387     100.000
 86.397     100.000
 86.407     100.000
 86.417     100.000
 86.427     100.000
 86.437     100.000
 86.447     100.000
 86.457     100.000
 86.467     100.000
 86.477     100.000
 86.487     100.000
 86.497     100.000
 86.507     100.000
 86.517     100.000
 86.528     100.000
 86.538     100.000
 86.548     100.000
 86.558     100.000
 86.568     100.000
 86.578     100.000
 86.588     100.000
 86.598     100.000
 86.608     100.000
 86.618     100.000
 86.628     100.000
 86.638     100.000
 86.648     100.000
 86.658     100.000
 86.668     100.000
 86.678     100.000
 86.688     100.000
 86.698     100.000
 86.708     100.000
 86.718     100.000
 86.728     100.000
 86.738     100.000
 86.748     100.000
 86.758     100.000
 86.768     100.000
 86.778     100.000
 86.788     100.000
 86.798     100.000
 86.808     100.000
 86.818     100.000
 86.828     100.000
 86.838     100.000
 86.848     100.000
 86.858     100.000
 86.868     100.000
 86.878     100.000
 86.888     100.000
 86.898     100.000
 86.908     100.000
 86.918     100.000
 86.928     100.000
 86.938     100.000
 86.948     100.000
 86.958     100.000
 86.968     100.000
 86.978     100.000
 86.988     100.000
 86.998     100.000
 87.008     100.000
 87.018     100.000
 87.028     100.000
 87.038     100.000
 87.048     100.000
 87.058     100.000
 87.068     100.000
 87.078     100.000
 87.089     100.000
 87.099     100.000
 87.109     100.000
 87.119     100.000
 87.129     100.000
 87.139     100.000
 87.149     100.000
 87.159     100.000
 87.169     100.000
 87.179     100.000
 87.189     100.000
 87.199     100.000
 87.209     100.000
 87.219     100.000
 87.229     100.000
 87.239     100.000
 87.249     100.000
 87.259     100.000
 87.269     100.000
 87.279     100.000
 87.289     100.000
 87.299     100.000
 87.309     100.000
 87.319     100.000
 87.329     100.000
 87.339     100.000
 87.349     100.000
 87.359     100.000
 87.369     100.000
 87.379     100.000
 87.389     100.000
 87.399     100.000
 87.409     100.000
 87.419     100.000
 87.429     100.000
 87.439     100.000
 87.449     100.000
 87.459     100.000
 87.469     100.000
 87.479     100.000
 87.489     100.000
 87.499     100.000
 87.509     100.000
 87.519     100.000
 87.529     100.000
 87.539     100.000
 87.549     100.000
 87.559     100.000
 87.569     100.000
 87.579     100.000
 87.589     100.000
 87.599     100.000
 87.609     100.000
 87.619     100.000
 87.629     100.000
 87.640     100.000
 87.650     100.000
 87.660     100.000
 87.670     100.000
 87.680     100.000
 87.690     100.000
 87.700     100.000
 87.710     100.000
 87.720     100.000
 87.730     100.000
 87.740     100.000
 87.750     100.000
 87.760     100.000
 87.770     100.000
 87.780     100.000
 87.790     100.000
 87.800     100.000
 87.810     100.000
 87.820     100.000
 87.830     100.000
 87.840     100.000
 87.850     100.000
 87.860     100.000
 87.870     100.000
 87.880     100.000
 87.890     100.000
 87.900     100.000
 87.910     100.000
 87.920     100.000
 87.930     100.000
 87.940     100.000
 87.950     100.000
 87.960     100.000
 87.970     100.000
 87.980     100.000
 87.990     100.000
 88.000     100.000
 88.010     100.000
 88.020     100.000
 88.030     100.000
 88.040     100.000
 88.050     100.000
 88.060     100.000
 88.070     100.000
 88.080     100.000
 88.090     100.000
 88.100     100.000
 88.110     100.000
 88.120     100.000
 88.130     100.000
 88.140     100.000
 88.150     100.000
 88.160     100.000
 88.170     100.000
 88.180     100.000
 88.190     100.000
 88.201     100.000
 88.211     100.000
 88.221     100.000
 88.231     100.000
 88.241     100.000
 88.251     100.000
 88.261     100.000
 88.271     100.000
 88.281     100.000
 88.291     100.000
 88.301     100.000
 88.311     100.000
 88.321     100.000
 88.331     100.002
 88.341     100.002
 88.351     100.002
 88.361     100.003
 88.371     100.004
 88.381     100.004
 88.391     100.005
 88.401     100.006
 88.411     100.008
 88.421     100.009
 88.431     100.011
 88.441     100.013
 88.451     100.015
 88.461     100.018
 88.471     100.022
 88.481     100.026
 88.491     100.031
 88.501     100.036
 88.511     100.043
 88.521     100.050
 88.531     100.059
 88.541     100.070
 88.551     100.081
 88.561     100.095
 88.571     100.111
 88.581     100.130
 88.591     100.151
 88.601     100.175
 88.611     100.203
 88.621     100.235
 88.631     100.271
 88.641     100.313
 88.651     100.360
 88.661     100.414
 88.671     100.475
 88.681     100.544
 88.691     100.622
 88.701     100.710
 88.711     100.809
 88.721     100.920
 88.731     101.044
 88.741     101.184
 88.751     101.340
 88.762     101.513
 88.772     101.706
 88.782     101.921
 88.792     102.159
 88.802     102.422
 88.812     102.712
 88.822     103.032
 88.832     103.384
 88.842     103.770
 88.852     104.192
 88.862     104.655
 88.872     105.159
 88.882     105.708
 88.892     106.305
 88.902     106.952
 88.912     107.652
 88.922     108.408
 88.932     109.223
 88.942     110.099
 88.952     111.040
 88.962     112.047
 88.972     113.123
 88.982     114.271
 88.992     115.493
 89.002     116.790
 89.012     118.164
 89.022     119.617
 89.032     121.151
 89.042     122.764
 89.052     124.458
 89.062     126.232
 89.072     128.087
 89.082     130.020
 89.092     132.032
 89.102     134.119
 89.112     136.280
 89.122     138.511
 89.132     140.808
 89.142     143.168
 89.152     145.587
 89.162     148.057
 89.172     150.573
 89.182     153.129
 89.192     155.718
 89.202     158.332
 89.212     160.964
 89.222     163.604
 89.232     166.244
 89.242     168.874
 89.252     171.486
 89.262     174.068
 89.272     176.611
 89.282     179.107
 89.292     181.541
 89.302     183.904
 89.313     186.187
 89.323     188.380
 89.333     190.472
 89.343     192.453
 89.353     194.315
 89.363     196.048
 89.373     197.645
 89.383     199.096
 89.393     200.396
 89.403     201.537
 89.413     202.514
 89.423     203.321
 89.433     203.955
 89.443     204.413
 89.453     204.691
 89.463     204.789
 89.473     204.706
 89.483     204.442
 89.493     204.000
 89.503     203.380
 89.513     202.587
 89.523     201.624
 89.533     200.496
 89.543     199.209
 89.553     197.770
 89.563     196.185
 89.573     194.463
 89.583     192.611
 89.593     190.639
 89.603     188.556
 89.613     186.371
 89.623     184.095
 89.633     181.738
 89.643     179.309
 89.653     176.820
 89.663     174.279
 89.673     171.699
 89.683     169.090
 89.693     166.461
 89.703     163.821
 89.713     161.181
 89.723     158.548
 89.733     155.932
 89.743     153.341
 89.753     150.782
 89.763     148.262
 89.773     145.788
 89.783     143.364
 89.793     141.000
 89.803     138.697
 89.813     136.461
 89.823     134.294
 89.833     132.201
 89.843     130.183
 89.853     128.243
 89.863     126.382
 89.874     124.601
 89.884     122.900
 89.894     121.281
 89.904     119.742
 89.914     118.281
 89.924     116.900
 89.934     115.597
 89.944     114.369
 89.954     113.215
 89.964     112.133
 89.974     111.120
 89.984     110.174
 89.994     109.293
 90.004     108.473
