2theta /stopnie	natê¿enie/jednostki umowne
 10.000      10.000
 10.010      10.000
 10.020      10.000
 10.030      10.000
 10.040      10.000
 10.050      10.000
 10.060      10.000
 10.070      10.000
 10.080      10.000
 10.090      10.000
 10.100      10.000
 10.110      10.000
 10.120      10.000
 10.130      10.000
 10.140      10.000
 10.150      10.000
 10.160      10.000
 10.170      10.000
 10.180      10.000
 10.190      10.000
 10.200      10.000
 10.210      10.000
 10.220      10.000
 10.230      10.000
 10.240      10.000
 10.250      10.000
 10.260      10.000
 10.270      10.000
 10.281      10.000
 10.291      10.000
 10.301      10.000
 10.311      10.000
 10.321      10.000
 10.331      10.000
 10.341      10.000
 10.351      10.000
 10.361      10.000
 10.371      10.000
 10.381      10.000
 10.391      10.000
 10.401      10.000
 10.411      10.000
 10.421      10.000
 10.431      10.000
 10.441      10.000
 10.451      10.000
 10.461      10.000
 10.471      10.000
 10.481      10.000
 10.491      10.000
 10.501      10.000
 10.511      10.000
 10.521      10.000
 10.531      10.000
 10.541      10.000
 10.551      10.000
 10.561      10.000
 10.571      10.000
 10.581      10.000
 10.591      10.000
 10.601      10.000
 10.611      10.000
 10.621      10.000
 10.631      10.000
 10.641      10.000
 10.651      10.000
 10.661      10.000
 10.671      10.000
 10.681      10.000
 10.691      10.000
 10.701      10.000
 10.711      10.000
 10.721      10.000
 10.731      10.000
 10.741      10.000
 10.751      10.000
 10.761      10.000
 10.771      10.000
 10.781      10.000
 10.791      10.000
 10.801      10.000
 10.811      10.000
 10.821      10.000
 10.831      10.000
 10.842      10.000
 10.852      10.000
 10.862      10.000
 10.872      10.000
 10.882      10.000
 10.892      10.000
 10.902      10.000
 10.912      10.000
 10.922      10.000
 10.932      10.000
 10.942      10.000
 10.952      10.000
 10.962      10.000
 10.972      10.000
 10.982      10.000
 10.992      10.000
 11.002      10.000
 11.012      10.000
 11.022      10.000
 11.032      10.000
 11.042      10.000
 11.052      10.000
 11.062      10.000
 11.072      10.000
 11.082      10.000
 11.092      10.000
 11.102      10.000
 11.112      10.000
 11.122      10.000
 11.132      10.000
 11.142      10.000
 11.152      10.000
 11.162      10.000
 11.172      10.000
 11.182      10.000
 11.192      10.000
 11.202      10.000
 11.212      10.000
 11.222      10.000
 11.232      10.000
 11.242      10.000
 11.252      10.000
 11.262      10.000
 11.272      10.000
 11.282      10.000
 11.292      10.000
 11.302      10.000
 11.312      10.000
 11.322      10.000
 11.332      10.000
 11.342      10.000
 11.352      10.000
 11.362      10.000
 11.372      10.000
 11.382      10.000
 11.393      10.000
 11.403      10.000
 11.413      10.000
 11.423      10.000
 11.433      10.000
 11.443      10.000
 11.453      10.000
 11.463      10.000
 11.473      10.000
 11.483      10.000
 11.493      10.000
 11.503      10.000
 11.513      10.000
 11.523      10.000
 11.533      10.000
 11.543      10.000
 11.553      10.000
 11.563      10.000
 11.573      10.000
 11.583      10.000
 11.593      10.000
 11.603      10.000
 11.613      10.000
 11.623      10.000
 11.633      10.000
 11.643      10.000
 11.653      10.000
 11.663      10.000
 11.673      10.000
 11.683      10.000
 11.693      10.000
 11.703      10.000
 11.713      10.000
 11.723      10.000
 11.733      10.000
 11.743      10.000
 11.753      10.000
 11.763      10.000
 11.773      10.000
 11.783      10.000
 11.793      10.000
 11.803      10.000
 11.813      10.000
 11.823      10.000
 11.833      10.000
 11.843      10.000
 11.853      10.000
 11.863      10.000
 11.873      10.000
 11.883      10.000
 11.893      10.000
 11.903      10.000
 11.913      10.000
 11.923      10.000
 11.933      10.000
 11.943      10.000
 11.954      10.000
 11.964      10.000
 11.974      10.000
 11.984      10.000
 11.994      10.000
 12.004      10.000
 12.014      10.000
 12.024      10.000
 12.034      10.000
 12.044      10.000
 12.054      10.000
 12.064      10.000
 12.074      10.000
 12.084      10.000
 12.094      10.000
 12.104      10.000
 12.114      10.000
 12.124      10.000
 12.134      10.000
 12.144      10.000
 12.154      10.000
 12.164      10.000
 12.174      10.000
 12.184      10.000
 12.194      10.000
 12.204      10.000
 12.214      10.000
 12.224      10.000
 12.234      10.000
 12.244      10.000
 12.254      10.000
 12.264      10.000
 12.274      10.000
 12.284      10.000
 12.294      10.000
 12.304      10.000
 12.314      10.000
 12.324      10.000
 12.334      10.000
 12.344      10.000
 12.354      10.000
 12.364      10.000
 12.374      10.000
 12.384      10.000
 12.394      10.000
 12.404      10.000
 12.414      10.000
 12.424      10.000
 12.434      10.000
 12.444      10.000
 12.454      10.000
 12.464      10.000
 12.474      10.000
 12.484      10.000
 12.494      10.000
 12.505      10.000
 12.515      10.000
 12.525      10.000
 12.535      10.000
 12.545      10.000
 12.555      10.000
 12.565      10.000
 12.575      10.000
 12.585      10.000
 12.595      10.000
 12.605      10.000
 12.615      10.000
 12.625      10.000
 12.635      10.000
 12.645      10.000
 12.655      10.000
 12.665      10.000
 12.675      10.000
 12.685      10.000
 12.695      10.000
 12.705      10.000
 12.715      10.000
 12.725      10.000
 12.735      10.000
 12.745      10.000
 12.755      10.000
 12.765      10.000
 12.775      10.000
 12.785      10.000
 12.795      10.000
 12.805      10.000
 12.815      10.000
 12.825      10.000
 12.835      10.000
 12.845      10.000
 12.855      10.000
 12.865      10.000
 12.875      10.000
 12.885      10.000
 12.895      10.000
 12.905      10.000
 12.915      10.000
 12.925      10.000
 12.935      10.000
 12.945      10.000
 12.955      10.000
 12.965      10.000
 12.975      10.000
 12.985      10.000
 12.995      10.000
 13.005      10.000
 13.015      10.000
 13.025      10.000
 13.035      10.000
 13.045      10.000
 13.055      10.000
 13.066      10.000
 13.076      10.000
 13.086      10.000
 13.096      10.000
 13.106      10.000
 13.116      10.000
 13.126      10.000
 13.136      10.000
 13.146      10.000
 13.156      10.000
 13.166      10.000
 13.176      10.000
 13.186      10.000
 13.196      10.000
 13.206      10.000
 13.216      10.000
 13.226      10.000
 13.236      10.000
 13.246      10.000
 13.256      10.000
 13.266      10.000
 13.276      10.000
 13.286      10.000
 13.296      10.000
 13.306      10.000
 13.316      10.000
 13.326      10.000
 13.336      10.000
 13.346      10.000
 13.356      10.000
 13.366      10.000
 13.376      10.000
 13.386      10.000
 13.396      10.000
 13.406      10.000
 13.416      10.000
 13.426      10.000
 13.436      10.000
 13.446      10.000
 13.456      10.000
 13.466      10.000
 13.476      10.000
 13.486      10.000
 13.496      10.000
 13.506      10.000
 13.516      10.000
 13.526      10.000
 13.536      10.000
 13.546      10.000
 13.556      10.000
 13.566      10.000
 13.576      10.000
 13.586      10.000
 13.596      10.000
 13.606      10.000
 13.616      10.000
 13.627      10.000
 13.637      10.000
 13.647      10.000
 13.657      10.000
 13.667      10.000
 13.677      10.000
 13.687      10.000
 13.697      10.000
 13.707      10.000
 13.717      10.000
 13.727      10.000
 13.737      10.000
 13.747      10.000
 13.757      10.000
 13.767      10.000
 13.777      10.000
 13.787      10.000
 13.797      10.000
 13.807      10.000
 13.817      10.000
 13.827      10.000
 13.837      10.000
 13.847      10.027
 13.857      10.079
 13.867      10.219
 13.877      10.574
 13.887      11.423
 13.897      13.339
 13.907      17.410
 13.917      25.554
 13.927      40.882
 13.937      67.991
 13.947     113.007
 13.957     183.064
 13.967     285.015
 13.977     423.386
 13.987     597.721
 13.997     800.372
 14.007    1015.357
 14.017    1219.574
 14.027    1386.519
 14.037    1491.703
 14.047    1518.584
 14.057    1462.811
 14.067    1333.359
 14.077    1150.205
 14.087     939.206
 14.097     726.279
 14.107     532.242
 14.117     370.156
 14.127     244.941
 14.137     154.956
 14.147      94.595
 14.157      56.699
 14.167      34.383
 14.178      22.041
 14.188      15.625
 14.198      12.485
 14.208      11.039
 14.218      10.411
 14.228      10.154
 14.238      10.054
 14.248      10.000
 14.258      10.000
 14.268      10.000
 14.278      10.000
 14.288      10.000
 14.298      10.000
 14.308      10.000
 14.318      10.000
 14.328      10.000
 14.338      10.000
 14.348      10.000
 14.358      10.000
 14.368      10.000
 14.378      10.000
 14.388      10.000
 14.398      10.000
 14.408      10.000
 14.418      10.000
 14.428      10.000
 14.438      10.000
 14.448      10.000
 14.458      10.000
 14.468      10.000
 14.478      10.000
 14.488      10.000
 14.498      10.000
 14.508      10.000
 14.518      10.000
 14.528      10.000
 14.538      10.000
 14.548      10.000
 14.558      10.000
 14.568      10.000
 14.578      10.000
 14.588      10.000
 14.598      10.000
 14.608      10.000
 14.618      10.000
 14.628      10.000
 14.638      10.000
 14.648      10.000
 14.658      10.000
 14.668      10.000
 14.678      10.000
 14.688      10.000
 14.698      10.000
 14.708      10.000
 14.718      10.000
 14.728      10.000
 14.739      10.000
 14.749      10.000
 14.759      10.000
 14.769      10.000
 14.779      10.000
 14.789      10.000
 14.799      10.000
 14.809      10.000
 14.819      10.000
 14.829      10.000
 14.839      10.000
 14.849      10.000
 14.859      10.000
 14.869      10.000
 14.879      10.000
 14.889      10.000
 14.899      10.000
 14.909      10.000
 14.919      10.000
 14.929      10.000
 14.939      10.000
 14.949      10.000
 14.959      10.000
 14.969      10.000
 14.979      10.000
 14.989      10.000
 14.999      10.000
 15.009      10.000
 15.019      10.000
 15.029      10.000
 15.039      10.000
 15.049      10.000
 15.059      10.000
 15.069      10.000
 15.079      10.000
 15.089      10.000
 15.099      10.000
 15.109      10.000
 15.119      10.000
 15.129      10.000
 15.139      10.000
 15.149      10.000
 15.159      10.000
 15.169      10.000
 15.179      10.000
 15.189      10.000
 15.199      10.000
 15.209      10.000
 15.219      10.000
 15.229      10.000
 15.239      10.000
 15.249      10.000
 15.259      10.000
 15.269      10.000
 15.279      10.000
 15.290      10.000
 15.300      10.000
 15.310      10.000
 15.320      10.000
 15.330      10.000
 15.340      10.000
 15.350      10.000
 15.360      10.000
 15.370      10.000
 15.380      10.000
 15.390      10.000
 15.400      10.000
 15.410      10.000
 15.420      10.000
 15.430      10.000
 15.440      10.000
 15.450      10.000
 15.460      10.000
 15.470      10.000
 15.480      10.000
 15.490      10.000
 15.500      10.000
 15.510      10.000
 15.520      10.000
 15.530      10.000
 15.540      10.000
 15.550      10.000
 15.560      10.000
 15.570      10.000
 15.580      10.000
 15.590      10.000
 15.600      10.000
 15.610      10.000
 15.620      10.000
 15.630      10.000
 15.640      10.000
 15.650      10.000
 15.660      10.000
 15.670      10.000
 15.680      10.000
 15.690      10.000
 15.700      10.000
 15.710      10.000
 15.720      10.000
 15.730      10.000
 15.740      10.000
 15.750      10.000
 15.760      10.000
 15.770      10.000
 15.780      10.000
 15.790      10.000
 15.800      10.000
 15.810      10.000
 15.820      10.000
 15.830      10.000
 15.840      10.000
 15.851      10.000
 15.861      10.000
 15.871      10.000
 15.881      10.000
 15.891      10.000
 15.901      10.000
 15.911      10.000
 15.921      10.000
 15.931      10.000
 15.941      10.000
 15.951      10.000
 15.961      10.000
 15.971      10.000
 15.981      10.000
 15.991      10.000
 16.001      10.000
 16.011      10.000
 16.021      10.000
 16.031      10.000
 16.041      10.000
 16.051      10.000
 16.061      10.000
 16.071      10.000
 16.081      10.000
 16.091      10.000
 16.101      10.000
 16.111      10.000
 16.121      10.000
 16.131      10.000
 16.141      10.000
 16.151      10.000
 16.161      10.000
 16.171      10.000
 16.181      10.000
 16.191      10.000
 16.201      10.000
 16.211      10.000
 16.221      10.000
 16.231      10.000
 16.241      10.000
 16.251      10.000
 16.261      10.000
 16.271      10.000
 16.281      10.000
 16.291      10.000
 16.301      10.000
 16.311      10.000
 16.321      10.000
 16.331      10.000
 16.341      10.000
 16.351      10.000
 16.361      10.000
 16.371      10.000
 16.381      10.000
 16.391      10.000
 16.402      10.000
 16.412      10.000
 16.422      10.000
 16.432      10.000
 16.442      10.000
 16.452      10.000
 16.462      10.000
 16.472      10.000
 16.482      10.000
 16.492      10.000
 16.502      10.000
 16.512      10.000
 16.522      10.000
 16.532      10.000
 16.542      10.000
 16.552      10.000
 16.562      10.000
 16.572      10.000
 16.582      10.000
 16.592      10.000
 16.602      10.000
 16.612      10.000
 16.622      10.000
 16.632      10.000
 16.642      10.000
 16.652      10.000
 16.662      10.000
 16.672      10.000
 16.682      10.000
 16.692      10.000
 16.702      10.000
 16.712      10.000
 16.722      10.000
 16.732      10.000
 16.742      10.000
 16.752      10.000
 16.762      10.000
 16.772      10.000
 16.782      10.000
 16.792      10.000
 16.802      10.000
 16.812      10.000
 16.822      10.000
 16.832      10.000
 16.842      10.000
 16.852      10.000
 16.862      10.000
 16.872      10.000
 16.882      10.000
 16.892      10.000
 16.902      10.000
 16.912      10.000
 16.922      10.000
 16.932      10.000
 16.942      10.000
 16.952      10.000
 16.963      10.000
 16.973      10.000
 16.983      10.000
 16.993      10.000
 17.003      10.000
 17.013      10.000
 17.023      10.000
 17.033      10.000
 17.043      10.000
 17.053      10.000
 17.063      10.000
 17.073      10.000
 17.083      10.000
 17.093      10.000
 17.103      10.000
 17.113      10.000
 17.123      10.000
 17.133      10.000
 17.143      10.000
 17.153      10.000
 17.163      10.000
 17.173      10.000
 17.183      10.000
 17.193      10.000
 17.203      10.000
 17.213      10.000
 17.223      10.000
 17.233      10.000
 17.243      10.000
 17.253      10.000
 17.263      10.000
 17.273      10.000
 17.283      10.000
 17.293      10.000
 17.303      10.000
 17.313      10.000
 17.323      10.000
 17.333      10.000
 17.343      10.000
 17.353      10.000
 17.363      10.000
 17.373      10.000
 17.383      10.000
 17.393      10.000
 17.403      10.000
 17.413      10.000
 17.423      10.000
 17.433      10.000
 17.443      10.000
 17.453      10.000
 17.463      10.000
 17.473      10.000
 17.483      10.000
 17.493      10.000
 17.503      10.000
 17.514      10.000
 17.524      10.000
 17.534      10.000
 17.544      10.000
 17.554      10.000
 17.564      10.000
 17.574      10.000
 17.584      10.000
 17.594      10.000
 17.604      10.000
 17.614      10.000
 17.624      10.000
 17.634      10.000
 17.644      10.000
 17.654      10.000
 17.664      10.000
 17.674      10.000
 17.684      10.000
 17.694      10.000
 17.704      10.000
 17.714      10.000
 17.724      10.000
 17.734      10.000
 17.744      10.000
 17.754      10.000
 17.764      10.000
 17.774      10.000
 17.784      10.000
 17.794      10.000
 17.804      10.000
 17.814      10.000
 17.824      10.000
 17.834      10.000
 17.844      10.000
 17.854      10.000
 17.864      10.000
 17.874      10.000
 17.884      10.000
 17.894      10.000
 17.904      10.000
 17.914      10.000
 17.924      10.000
 17.934      10.000
 17.944      10.000
 17.954      10.000
 17.964      10.000
 17.974      10.000
 17.984      10.000
 17.994      10.000
 18.004      10.000
 18.014      10.000
 18.024      10.000
 18.034      10.000
 18.044      10.000
 18.054      10.000
 18.064      10.000
 18.075      10.000
 18.085      10.000
 18.095      10.000
 18.105      10.000
 18.115      10.000
 18.125      10.000
 18.135      10.000
 18.145      10.000
 18.155      10.000
 18.165      10.000
 18.175      10.000
 18.185      10.000
 18.195      10.000
 18.205      10.000
 18.215      10.000
 18.225      10.000
 18.235      10.000
 18.245      10.000
 18.255      10.000
 18.265      10.000
 18.275      10.000
 18.285      10.000
 18.295      10.000
 18.305      10.000
 18.315      10.000
 18.325      10.000
 18.335      10.000
 18.345      10.000
 18.355      10.000
 18.365      10.000
 18.375      10.000
 18.385      10.000
 18.395      10.000
 18.405      10.000
 18.415      10.000
 18.425      10.000
 18.435      10.000
 18.445      10.000
 18.455      10.000
 18.465      10.000
 18.475      10.000
 18.485      10.000
 18.495      10.000
 18.505      10.000
 18.515      10.000
 18.525      10.000
 18.535      10.000
 18.545      10.000
 18.555      10.000
 18.565      10.000
 18.575      10.000
 18.585      10.000
 18.595      10.000
 18.605      10.000
 18.615      10.000
 18.625      10.000
 18.636      10.000
 18.646      10.000
 18.656      10.000
 18.666      10.000
 18.676      10.000
 18.686      10.000
 18.696      10.000
 18.706      10.000
 18.716      10.000
 18.726      10.000
 18.736      10.000
 18.746      10.000
 18.756      10.000
 18.766      10.000
 18.776      10.000
 18.786      10.000
 18.796      10.000
 18.806      10.000
 18.816      10.000
 18.826      10.000
 18.836      10.000
 18.846      10.000
 18.856      10.000
 18.866      10.000
 18.876      10.000
 18.886      10.000
 18.896      10.000
 18.906      10.000
 18.916      10.000
 18.926      10.000
 18.936      10.000
 18.946      10.000
 18.956      10.000
 18.966      10.000
 18.976      10.000
 18.986      10.000
 18.996      10.000
 19.006      10.000
 19.016      10.000
 19.026      10.000
 19.036      10.000
 19.046      10.000
 19.056      10.000
 19.066      10.000
 19.076      10.000
 19.086      10.000
 19.096      10.000
 19.106      10.000
 19.116      10.000
 19.126      10.000
 19.136      10.000
 19.146      10.000
 19.156      10.000
 19.166      10.000
 19.176      10.000
 19.187      10.000
 19.197      10.000
 19.207      10.000
 19.217      10.000
 19.227      10.000
 19.237      10.000
 19.247      10.000
 19.257      10.000
 19.267      10.000
 19.277      10.000
 19.287      10.000
 19.297      10.000
 19.307      10.000
 19.317      10.000
 19.327      10.000
 19.337      10.000
 19.347      10.000
 19.357      10.000
 19.367      10.000
 19.377      10.000
 19.387      10.000
 19.397      10.000
 19.407      10.000
 19.417      10.000
 19.427      10.000
 19.437      10.000
 19.447      10.000
 19.457      10.000
 19.467      10.000
 19.477      10.000
 19.487      10.000
 19.497      10.000
 19.507      10.000
 19.517      10.000
 19.527      10.000
 19.537      10.000
 19.547      10.000
 19.557      10.000
 19.567      10.000
 19.577      10.000
 19.587      10.000
 19.597      10.000
 19.607      10.000
 19.617      10.000
 19.627      10.000
 19.637      10.000
 19.647      10.000
 19.657      10.000
 19.667      10.000
 19.677      10.000
 19.687      10.000
 19.697      10.000
 19.707      10.000
 19.717      10.011
 19.727      10.032
 19.737      10.087
 19.748      10.224
 19.758      10.549
 19.768      11.272
 19.778      12.786
 19.788      15.773
 19.798      21.313
 19.808      30.973
 19.818      46.773
 19.828      70.985
 19.838     105.666
 19.848     151.957
 19.858     209.230
 19.868     274.475
 19.878     342.098
 19.888     404.421
 19.898     453.085
 19.908     480.816
 19.918     483.196
 19.928     459.847
 19.938     414.494
 19.948     354.032
 19.958     286.770
 19.968     220.595
 19.978     161.577
 19.988     113.193
 19.998      76.445
 20.008      50.471
 20.018      33.316
 20.028      22.704
 20.038      16.548
 20.048      13.193
 20.058      11.472
 20.068      10.642
 20.078      10.265
 20.088      10.103
 20.098      10.038
 20.108      10.013
 20.118      10.000
 20.128      10.000
 20.138      10.000
 20.148      10.000
 20.158      10.000
 20.168      10.000
 20.178      10.000
 20.188      10.000
 20.198      10.000
 20.208      10.000
 20.218      10.000
 20.228      10.000
 20.238      10.000
 20.248      10.000
 20.258      10.000
 20.268      10.000
 20.278      10.000
 20.288      10.000
 20.299      10.000
 20.309      10.000
 20.319      10.000
 20.329      10.000
 20.339      10.000
 20.349      10.000
 20.359      10.000
 20.369      10.000
 20.379      10.000
 20.389      10.000
 20.399      10.000
 20.409      10.000
 20.419      10.000
 20.429      10.000
 20.439      10.000
 20.449      10.000
 20.459      10.000
 20.469      10.000
 20.479      10.000
 20.489      10.000
 20.499      10.000
 20.509      10.000
 20.519      10.000
 20.529      10.000
 20.539      10.000
 20.549      10.000
 20.559      10.000
 20.569      10.000
 20.579      10.000
 20.589      10.000
 20.599      10.000
 20.609      10.000
 20.619      10.000
 20.629      10.000
 20.639      10.000
 20.649      10.000
 20.659      10.000
 20.669      10.000
 20.679      10.000
 20.689      10.000
 20.699      10.000
 20.709      10.000
 20.719      10.000
 20.729      10.000
 20.739      10.000
 20.749      10.000
 20.759      10.000
 20.769      10.000
 20.779      10.000
 20.789      10.000
 20.799      10.000
 20.809      10.000
 20.819      10.000
 20.829      10.000
 20.839      10.000
 20.849      10.000
 20.860      10.000
 20.870      10.000
 20.880      10.000
 20.890      10.000
 20.900      10.000
 20.910      10.000
 20.920      10.000
 20.930      10.000
 20.940      10.000
 20.950      10.000
 20.960      10.000
 20.970      10.000
 20.980      10.000
 20.990      10.000
 21.000      10.000
 21.010      10.000
 21.020      10.000
 21.030      10.000
 21.040      10.000
 21.050      10.000
 21.060      10.000
 21.070      10.000
 21.080      10.000
 21.090      10.000
 21.100      10.000
 21.110      10.000
 21.120      10.000
 21.130      10.000
 21.140      10.000
 21.150      10.000
 21.160      10.000
 21.170      10.000
 21.180      10.000
 21.190      10.000
 21.200      10.000
 21.210      10.000
 21.220      10.000
 21.230      10.000
 21.240      10.000
 21.250      10.000
 21.260      10.000
 21.270      10.000
 21.280      10.000
 21.290      10.000
 21.300      10.000
 21.310      10.000
 21.320      10.000
 21.330      10.000
 21.340      10.000
 21.350      10.000
 21.360      10.000
 21.370      10.000
 21.380      10.000
 21.390      10.000
 21.400      10.000
 21.411      10.000
 21.421      10.000
 21.431      10.000
 21.441      10.000
 21.451      10.000
 21.461      10.000
 21.471      10.000
 21.481      10.000
 21.491      10.000
 21.501      10.000
 21.511      10.000
 21.521      10.000
 21.531      10.000
 21.541      10.000
 21.551      10.000
 21.561      10.000
 21.571      10.000
 21.581      10.000
 21.591      10.000
 21.601      10.000
 21.611      10.000
 21.621      10.000
 21.631      10.000
 21.641      10.000
 21.651      10.000
 21.661      10.000
 21.671      10.000
 21.681      10.000
 21.691      10.000
 21.701      10.000
 21.711      10.000
 21.721      10.000
 21.731      10.000
 21.741      10.000
 21.751      10.000
 21.761      10.000
 21.771      10.000
 21.781      10.000
 21.791      10.000
 21.801      10.000
 21.811      10.000
 21.821      10.000
 21.831      10.000
 21.841      10.000
 21.851      10.000
 21.861      10.000
 21.871      10.000
 21.881      10.000
 21.891      10.000
 21.901      10.000
 21.911      10.000
 21.921      10.000
 21.931      10.000
 21.941      10.000
 21.951      10.000
 21.961      10.000
 21.972      10.000
 21.982      10.000
 21.992      10.000
 22.002      10.000
 22.012      10.000
 22.022      10.000
 22.032      10.000
 22.042      10.000
 22.052      10.000
 22.062      10.000
 22.072      10.000
 22.082      10.000
 22.092      10.000
 22.102      10.000
 22.112      10.000
 22.122      10.000
 22.132      10.000
 22.142      10.000
 22.152      10.000
 22.162      10.000
 22.172      10.000
 22.182      10.000
 22.192      10.000
 22.202      10.000
 22.212      10.000
 22.222      10.000
 22.232      10.000
 22.242      10.000
 22.252      10.000
 22.262      10.000
 22.272      10.000
 22.282      10.000
 22.292      10.000
 22.302      10.000
 22.312      10.000
 22.322      10.000
 22.332      10.000
 22.342      10.000
 22.352      10.000
 22.362      10.000
 22.372      10.000
 22.382      10.000
 22.392      10.000
 22.402      10.000
 22.412      10.000
 22.422      10.000
 22.432      10.000
 22.442      10.000
 22.452      10.000
 22.462      10.000
 22.472      10.000
 22.482      10.000
 22.492      10.000
 22.502      10.000
 22.512      10.000
 22.522      10.000
 22.533      10.000
 22.543      10.000
 22.553      10.000
 22.563      10.000
 22.573      10.000
 22.583      10.000
 22.593      10.000
 22.603      10.000
 22.613      10.000
 22.623      10.000
 22.633      10.000
 22.643      10.000
 22.653      10.000
 22.663      10.000
 22.673      10.000
 22.683      10.000
 22.693      10.000
 22.703      10.000
 22.713      10.000
 22.723      10.000
 22.733      10.000
 22.743      10.000
 22.753      10.000
 22.763      10.000
 22.773      10.000
 22.783      10.000
 22.793      10.000
 22.803      10.000
 22.813      10.000
 22.823      10.000
 22.833      10.000
 22.843      10.000
 22.853      10.000
 22.863      10.000
 22.873      10.000
 22.883      10.000
 22.893      10.000
 22.903      10.000
 22.913      10.000
 22.923      10.000
 22.933      10.000
 22.943      10.000
 22.953      10.000
 22.963      10.000
 22.973      10.000
 22.983      10.000
 22.993      10.000
 23.003      10.000
 23.013      10.000
 23.023      10.000
 23.033      10.000
 23.043      10.000
 23.053      10.000
 23.063      10.000
 23.073      10.000
 23.084      10.000
 23.094      10.000
 23.104      10.000
 23.114      10.000
 23.124      10.000
 23.134      10.000
 23.144      10.000
 23.154      10.000
 23.164      10.000
 23.174      10.000
 23.184      10.000
 23.194      10.000
 23.204      10.000
 23.214      10.000
 23.224      10.000
 23.234      10.000
 23.244      10.000
 23.254      10.000
 23.264      10.000
 23.274      10.000
 23.284      10.000
 23.294      10.000
 23.304      10.000
 23.314      10.000
 23.324      10.000
 23.334      10.000
 23.344      10.000
 23.354      10.000
 23.364      10.000
 23.374      10.000
 23.384      10.000
 23.394      10.000
 23.404      10.000
 23.414      10.000
 23.424      10.000
 23.434      10.000
 23.444      10.000
 23.454      10.000
 23.464      10.000
 23.474      10.000
 23.484      10.000
 23.494      10.000
 23.504      10.000
 23.514      10.000
 23.524      10.000
 23.534      10.000
 23.544      10.000
 23.554      10.000
 23.564      10.000
 23.574      10.000
 23.584      10.000
 23.594      10.000
 23.604      10.000
 23.614      10.000
 23.624      10.000
 23.634      10.000
 23.645      10.000
 23.655      10.000
 23.665      10.000
 23.675      10.000
 23.685      10.000
 23.695      10.000
 23.705      10.000
 23.715      10.000
 23.725      10.000
 23.735      10.000
 23.745      10.000
 23.755      10.000
 23.765      10.000
 23.775      10.000
 23.785      10.000
 23.795      10.000
 23.805      10.000
 23.815      10.000
 23.825      10.000
 23.835      10.000
 23.845      10.000
 23.855      10.000
 23.865      10.000
 23.875      10.000
 23.885      10.000
 23.895      10.000
 23.905      10.000
 23.915      10.000
 23.925      10.000
 23.935      10.000
 23.945      10.000
 23.955      10.000
 23.965      10.000
 23.975      10.000
 23.985      10.000
 23.995      10.000
 24.005      10.000
 24.015      10.000
 24.025      10.000
 24.035      10.000
 24.045      10.000
 24.055      10.000
 24.065      10.000
 24.075      10.000
 24.085      10.000
 24.095      10.000
 24.105      10.000
 24.115      10.000
 24.125      10.000
 24.135      10.000
 24.145      10.000
 24.155      10.000
 24.165      10.000
 24.175      10.000
 24.185      10.000
 24.196      10.000
 24.206      10.000
 24.216      10.000
 24.226      10.000
 24.236      10.000
 24.246      10.000
 24.256      10.033
 24.266      10.094
 24.276      10.258
 24.286      10.667
 24.296      11.631
 24.306      13.776
 24.316      18.268
 24.326      27.125
 24.336      43.545
 24.346      72.153
 24.356     118.935
 24.366     190.576
 24.376     293.131
 24.386     429.902
 24.396     599.072
 24.406     791.614
 24.416     990.956
 24.426    1174.535
 24.436    1317.594
 24.446    1398.759
 24.456    1405.124
 24.466    1335.652
 24.476    1201.463
 24.486    1022.859
 24.496     824.447
 24.506     629.455
 24.516     455.617
 24.526     313.230
 24.536     205.171
 24.546     128.809
 24.556      78.416
 24.566      47.265
 24.576      29.196
 24.586      19.354
 24.596      14.312
 24.606      11.880
 24.616      10.775
 24.626      10.302
 24.636      10.112
 24.646      10.039
 24.656      10.000
 24.666      10.000
 24.676      10.000
 24.686      10.000
 24.696      10.000
 24.706      10.000
 24.716      10.000
 24.726      10.000
 24.736      10.000
 24.746      10.000
 24.757      10.000
 24.767      10.000
 24.777      10.000
 24.787      10.000
 24.797      10.000
 24.807      10.000
 24.817      10.000
 24.827      10.000
 24.837      10.000
 24.847      10.000
 24.857      10.000
 24.867      10.000
 24.877      10.000
 24.887      10.000
 24.897      10.000
 24.907      10.000
 24.917      10.000
 24.927      10.000
 24.937      10.000
 24.947      10.000
 24.957      10.000
 24.967      10.000
 24.977      10.000
 24.987      10.000
 24.997      10.000
 25.007      10.000
 25.017      10.000
 25.027      10.000
 25.037      10.000
 25.047      10.000
 25.057      10.000
 25.067      10.000
 25.077      10.000
 25.087      10.000
 25.097      10.000
 25.107      10.000
 25.117      10.000
 25.127      10.000
 25.137      10.000
 25.147      10.000
 25.157      10.000
 25.167      10.000
 25.177      10.000
 25.187      10.000
 25.197      10.000
 25.207      10.000
 25.217      10.000
 25.227      10.000
 25.237      10.000
 25.247      10.000
 25.257      10.000
 25.267      10.000
 25.277      10.000
 25.287      10.000
 25.297      10.000
 25.308      10.000
 25.318      10.000
 25.328      10.000
 25.338      10.000
 25.348      10.000
 25.358      10.000
 25.368      10.000
 25.378      10.000
 25.388      10.000
 25.398      10.000
 25.408      10.000
 25.418      10.000
 25.428      10.000
 25.438      10.000
 25.448      10.000
 25.458      10.000
 25.468      10.000
 25.478      10.000
 25.488      10.000
 25.498      10.000
 25.508      10.000
 25.518      10.000
 25.528      10.000
 25.538      10.000
 25.548      10.000
 25.558      10.000
 25.568      10.000
 25.578      10.000
 25.588      10.000
 25.598      10.000
 25.608      10.000
 25.618      10.000
 25.628      10.000
 25.638      10.000
 25.648      10.000
 25.658      10.000
 25.668      10.000
 25.678      10.000
 25.688      10.000
 25.698      10.000
 25.708      10.000
 25.718      10.000
 25.728      10.000
 25.738      10.000
 25.748      10.000
 25.758      10.000
 25.768      10.000
 25.778      10.000
 25.788      10.000
 25.798      10.000
 25.808      10.000
 25.818      10.000
 25.828      10.000
 25.838      10.000
 25.848      10.000
 25.858      10.000
 25.869      10.000
 25.879      10.000
 25.889      10.000
 25.899      10.000
 25.909      10.000
 25.919      10.000
 25.929      10.000
 25.939      10.000
 25.949      10.000
 25.959      10.000
 25.969      10.000
 25.979      10.000
 25.989      10.000
 25.999      10.000
 26.009      10.000
 26.019      10.000
 26.029      10.000
 26.039      10.000
 26.049      10.000
 26.059      10.000
 26.069      10.000
 26.079      10.000
 26.089      10.000
 26.099      10.000
 26.109      10.000
 26.119      10.000
 26.129      10.000
 26.139      10.000
 26.149      10.000
 26.159      10.000
 26.169      10.000
 26.179      10.000
 26.189      10.000
 26.199      10.000
 26.209      10.000
 26.219      10.000
 26.229      10.000
 26.239      10.000
 26.249      10.000
 26.259      10.000
 26.269      10.000
 26.279      10.000
 26.289      10.000
 26.299      10.000
 26.309      10.000
 26.319      10.000
 26.329      10.000
 26.339      10.000
 26.349      10.000
 26.359      10.000
 26.369      10.000
 26.379      10.000
 26.389      10.000
 26.399      10.000
 26.409      10.000
 26.420      10.000
 26.430      10.000
 26.440      10.000
 26.450      10.000
 26.460      10.000
 26.470      10.000
 26.480      10.000
 26.490      10.000
 26.500      10.000
 26.510      10.000
 26.520      10.000
 26.530      10.000
 26.540      10.000
 26.550      10.000
 26.560      10.000
 26.570      10.000
 26.580      10.000
 26.590      10.000
 26.600      10.000
 26.610      10.000
 26.620      10.000
 26.630      10.000
 26.640      10.000
 26.650      10.000
 26.660      10.000
 26.670      10.000
 26.680      10.000
 26.690      10.000
 26.700      10.000
 26.710      10.000
 26.720      10.000
 26.730      10.000
 26.740      10.000
 26.750      10.000
 26.760      10.000
 26.770      10.000
 26.780      10.000
 26.790      10.000
 26.800      10.000
 26.810      10.000
 26.820      10.000
 26.830      10.000
 26.840      10.000
 26.850      10.000
 26.860      10.000
 26.870      10.000
 26.880      10.000
 26.890      10.000
 26.900      10.000
 26.910      10.000
 26.920      10.000
 26.930      10.000
 26.940      10.000
 26.950      10.000
 26.960      10.000
 26.970      10.000
 26.981      10.000
 26.991      10.000
 27.001      10.000
 27.011      10.000
 27.021      10.000
 27.031      10.000
 27.041      10.000
 27.051      10.000
 27.061      10.000
 27.071      10.000
 27.081      10.000
 27.091      10.000
 27.101      10.000
 27.111      10.000
 27.121      10.000
 27.131      10.000
 27.141      10.000
 27.151      10.000
 27.161      10.000
 27.171      10.000
 27.181      10.000
 27.191      10.000
 27.201      10.000
 27.211      10.000
 27.221      10.000
 27.231      10.000
 27.241      10.000
 27.251      10.000
 27.261      10.000
 27.271      10.000
 27.281      10.000
 27.291      10.000
 27.301      10.000
 27.311      10.000
 27.321      10.000
 27.331      10.000
 27.341      10.000
 27.351      10.000
 27.361      10.000
 27.371      10.000
 27.381      10.000
 27.391      10.000
 27.401      10.000
 27.411      10.000
 27.421      10.000
 27.431      10.000
 27.441      10.000
 27.451      10.000
 27.461      10.000
 27.471      10.000
 27.481      10.000
 27.491      10.000
 27.501      10.000
 27.511      10.000
 27.521      10.000
 27.531      10.000
 27.542      10.000
 27.552      10.000
 27.562      10.000
 27.572      10.000
 27.582      10.000
 27.592      10.000
 27.602      10.000
 27.612      10.000
 27.622      10.000
 27.632      10.000
 27.642      10.000
 27.652      10.000
 27.662      10.000
 27.672      10.000
 27.682      10.000
 27.692      10.000
 27.702      10.000
 27.712      10.000
 27.722      10.000
 27.732      10.000
 27.742      10.000
 27.752      10.000
 27.762      10.000
 27.772      10.000
 27.782      10.000
 27.792      10.000
 27.802      10.000
 27.812      10.000
 27.822      10.000
 27.832      10.000
 27.842      10.000
 27.852      10.000
 27.862      10.000
 27.872      10.000
 27.882      10.000
 27.892      10.000
 27.902      10.000
 27.912      10.000
 27.922      10.000
 27.932      10.000
 27.942      10.000
 27.952      10.000
 27.962      10.000
 27.972      10.000
 27.982      10.000
 27.992      10.000
 28.002      10.000
 28.012      10.000
 28.022      10.000
 28.032      10.000
 28.042      10.000
 28.052      10.000
 28.062      10.000
 28.072      10.000
 28.082      10.000
 28.093      10.000
 28.103      10.000
 28.113      10.014
 28.123      10.041
 28.133      10.112
 28.143      10.287
 28.153      10.699
 28.163      11.608
 28.173      13.502
 28.183      17.215
 28.193      24.058
 28.203      35.907
 28.213      55.165
 28.223      84.466
 28.233     126.132
 28.243     181.321
 28.253     249.038
 28.263     325.470
 28.273     403.821
 28.283     475.000
 28.293     529.326
 28.303     558.607
 28.313     558.168
 28.323     528.081
 28.333     473.144
 28.343     401.608
 28.353     323.207
 28.363     246.944
 28.373     179.537
 28.383     124.747
 28.393      83.460
 28.403      54.479
 28.413      35.476
 28.423      23.802
 28.433      17.072
 28.443      13.428
 28.453      11.571
 28.463      10.681
 28.473      10.279
 28.483      10.108
 28.493      10.040
 28.503      10.014
 28.513      10.000
 28.523      10.000
 28.533      10.000
 28.543      10.000
 28.553      10.000
 28.563      10.000
 28.573      10.000
 28.583      10.000
 28.593      10.000
 28.603      10.000
 28.613      10.000
 28.623      10.000
 28.633      10.000
 28.643      10.000
 28.654      10.000
 28.664      10.000
 28.674      10.000
 28.684      10.000
 28.694      10.000
 28.704      10.000
 28.714      10.000
 28.724      10.000
 28.734      10.000
 28.744      10.000
 28.754      10.000
 28.764      10.000
 28.774      10.000
 28.784      10.000
 28.794      10.000
 28.804      10.000
 28.814      10.000
 28.824      10.000
 28.834      10.000
 28.844      10.000
 28.854      10.000
 28.864      10.000
 28.874      10.000
 28.884      10.000
 28.894      10.000
 28.904      10.000
 28.914      10.000
 28.924      10.000
 28.934      10.000
 28.944      10.000
 28.954      10.000
 28.964      10.000
 28.974      10.000
 28.984      10.000
 28.994      10.000
 29.004      10.000
 29.014      10.000
 29.024      10.000
 29.034      10.000
 29.044      10.000
 29.054      10.000
 29.064      10.000
 29.074      10.000
 29.084      10.000
 29.094      10.000
 29.104      10.000
 29.114      10.000
 29.124      10.000
 29.134      10.000
 29.144      10.000
 29.154      10.000
 29.164      10.000
 29.174      10.000
 29.184      10.000
 29.194      10.000
 29.205      10.000
 29.215      10.000
 29.225      10.000
 29.235      10.000
 29.245      10.000
 29.255      10.000
 29.265      10.000
 29.275      10.000
 29.285      10.000
 29.295      10.000
 29.305      10.000
 29.315      10.000
 29.325      10.000
 29.335      10.000
 29.345      10.000
 29.355      10.000
 29.365      10.000
 29.375      10.000
 29.385      10.000
 29.395      10.000
 29.405      10.000
 29.415      10.000
 29.425      10.000
 29.435      10.000
 29.445      10.000
 29.455      10.000
 29.465      10.000
 29.475      10.000
 29.485      10.000
 29.495      10.000
 29.505      10.000
 29.515      10.000
 29.525      10.000
 29.535      10.000
 29.545      10.000
 29.555      10.000
 29.565      10.000
 29.575      10.000
 29.585      10.000
 29.595      10.000
 29.605      10.000
 29.615      10.000
 29.625      10.000
 29.635      10.000
 29.645      10.000
 29.655      10.000
 29.665      10.000
 29.675      10.000
 29.685      10.000
 29.695      10.000
 29.705      10.000
 29.715      10.000
 29.725      10.000
 29.735      10.000
 29.745      10.000
 29.755      10.000
 29.766      10.000
 29.776      10.000
 29.786      10.000
 29.796      10.000
 29.806      10.000
 29.816      10.000
 29.826      10.000
 29.836      10.000
 29.846      10.000
 29.856      10.000
 29.866      10.000
 29.876      10.000
 29.886      10.000
 29.896      10.000
 29.906      10.000
 29.916      10.000
 29.926      10.000
 29.936      10.000
 29.946      10.000
 29.956      10.000
 29.966      10.000
 29.976      10.000
 29.986      10.000
 29.996      10.000
 30.006      10.000
 30.016      10.000
 30.026      10.000
 30.036      10.000
 30.046      10.000
 30.056      10.000
 30.066      10.000
 30.076      10.000
 30.086      10.000
 30.096      10.000
 30.106      10.000
 30.116      10.000
 30.126      10.000
 30.136      10.000
 30.146      10.000
 30.156      10.000
 30.166      10.000
 30.176      10.000
 30.186      10.000
 30.196      10.000
 30.206      10.000
 30.216      10.000
 30.226      10.000
 30.236      10.000
 30.246      10.000
 30.256      10.000
 30.266      10.000
 30.276      10.000
 30.286      10.000
 30.296      10.000
 30.306      10.000
 30.317      10.000
 30.327      10.000
 30.337      10.000
 30.347      10.000
 30.357      10.000
 30.367      10.000
 30.377      10.000
 30.387      10.000
 30.397      10.000
 30.407      10.000
 30.417      10.000
 30.427      10.000
 30.437      10.000
 30.447      10.000
 30.457      10.000
 30.467      10.000
 30.477      10.000
 30.487      10.000
 30.497      10.000
 30.507      10.000
 30.517      10.000
 30.527      10.000
 30.537      10.000
 30.547      10.000
 30.557      10.000
 30.567      10.000
 30.577      10.000
 30.587      10.000
 30.597      10.000
 30.607      10.000
 30.617      10.000
 30.627      10.000
 30.637      10.000
 30.647      10.000
 30.657      10.000
 30.667      10.000
 30.677      10.000
 30.687      10.000
 30.697      10.000
 30.707      10.000
 30.717      10.000
 30.727      10.000
 30.737      10.000
 30.747      10.000
 30.757      10.000
 30.767      10.000
 30.777      10.000
 30.787      10.000
 30.797      10.000
 30.807      10.000
 30.817      10.000
 30.827      10.000
 30.837      10.000
 30.847      10.000
 30.857      10.000
 30.867      10.000
 30.878      10.000
 30.888      10.000
 30.898      10.000
 30.908      10.000
 30.918      10.000
 30.928      10.000
 30.938      10.000
 30.948      10.000
 30.958      10.000
 30.968      10.000
 30.978      10.000
 30.988      10.000
 30.998      10.000
 31.008      10.000
 31.018      10.000
 31.028      10.000
 31.038      10.000
 31.048      10.000
 31.058      10.000
 31.068      10.000
 31.078      10.000
 31.088      10.000
 31.098      10.000
 31.108      10.000
 31.118      10.000
 31.128      10.000
 31.138      10.000
 31.148      10.000
 31.158      10.000
 31.168      10.000
 31.178      10.000
 31.188      10.000
 31.198      10.000
 31.208      10.000
 31.218      10.000
 31.228      10.000
 31.238      10.000
 31.248      10.000
 31.258      10.000
 31.268      10.000
 31.278      10.000
 31.288      10.000
 31.298      10.000
 31.308      10.000
 31.318      10.000
 31.328      10.000
 31.338      10.000
 31.348      10.000
 31.358      10.000
 31.368      10.000
 31.378      10.000
 31.388      10.000
 31.398      10.000
 31.408      10.000
 31.418      10.000
 31.429      10.000
 31.439      10.000
 31.449      10.000
 31.459      10.000
 31.469      10.000
 31.479      10.000
 31.489      10.000
 31.499      10.000
 31.509      10.000
 31.519      10.000
 31.529      10.000
 31.539      10.028
 31.549      10.081
 31.559      10.217
 31.569      10.553
 31.579      11.333
 31.589      13.039
 31.599      16.551
 31.609      23.361
 31.619      35.772
 31.629      57.029
 31.639      91.163
 31.649     142.490
 31.659     214.586
 31.669     308.789
 31.679     422.750
 31.689     549.341
 31.699     676.574
 31.709     789.234
 31.719     871.642
 31.729     911.175
 31.739     901.507
 31.749     844.193
 31.759     748.321
 31.769     628.099
 31.779     499.421
 31.789     376.571
 31.799     269.697
 31.809     184.010
 31.819     120.293
 31.829      76.123
 31.839      47.497
 31.849      30.110
 31.859      20.203
 31.869      14.896
 31.879      12.222
 31.889      10.954
 31.899      10.387
 31.909      10.149
 31.919      10.054
 31.929      10.019
 31.939      10.000
 31.949      10.000
 31.959      10.000
 31.969      10.000
 31.979      10.000
 31.990      10.000
 32.000      10.000
 32.010      10.000
 32.020      10.000
 32.030      10.000
 32.040      10.000
 32.050      10.000
 32.060      10.000
 32.070      10.000
 32.080      10.000
 32.090      10.000
 32.100      10.000
 32.110      10.000
 32.120      10.000
 32.130      10.000
 32.140      10.000
 32.150      10.000
 32.160      10.000
 32.170      10.000
 32.180      10.000
 32.190      10.000
 32.200      10.000
 32.210      10.000
 32.220      10.000
 32.230      10.000
 32.240      10.000
 32.250      10.000
 32.260      10.000
 32.270      10.000
 32.280      10.000
 32.290      10.000
 32.300      10.000
 32.310      10.000
 32.320      10.000
 32.330      10.000
 32.340      10.000
 32.350      10.000
 32.360      10.000
 32.370      10.000
 32.380      10.000
 32.390      10.000
 32.400      10.000
 32.410      10.000
 32.420      10.000
 32.430      10.000
 32.440      10.000
 32.450      10.000
 32.460      10.000
 32.470      10.000
 32.480      10.000
 32.490      10.000
 32.500      10.000
 32.510      10.000
 32.520      10.000
 32.530      10.000
 32.541      10.000
 32.551      10.000
 32.561      10.000
 32.571      10.000
 32.581      10.000
 32.591      10.000
 32.601      10.000
 32.611      10.000
 32.621      10.000
 32.631      10.000
 32.641      10.000
 32.651      10.000
 32.661      10.000
 32.671      10.000
 32.681      10.000
 32.691      10.000
 32.701      10.000
 32.711      10.000
 32.721      10.000
 32.731      10.000
 32.741      10.000
 32.751      10.000
 32.761      10.000
 32.771      10.000
 32.781      10.000
 32.791      10.000
 32.801      10.000
 32.811      10.000
 32.821      10.000
 32.831      10.000
 32.841      10.000
 32.851      10.000
 32.861      10.000
 32.871      10.000
 32.881      10.000
 32.891      10.000
 32.901      10.000
 32.911      10.000
 32.921      10.000
 32.931      10.000
 32.941      10.000
 32.951      10.000
 32.961      10.000
 32.971      10.000
 32.981      10.000
 32.991      10.000
 33.001      10.000
 33.011      10.000
 33.021      10.000
 33.031      10.000
 33.041      10.000
 33.051      10.000
 33.061      10.000
 33.071      10.000
 33.081      10.000
 33.091      10.000
 33.102      10.000
 33.112      10.000
 33.122      10.000
 33.132      10.000
 33.142      10.000
 33.152      10.000
 33.162      10.000
 33.172      10.000
 33.182      10.000
 33.192      10.000
 33.202      10.000
 33.212      10.000
 33.222      10.000
 33.232      10.000
 33.242      10.000
 33.252      10.000
 33.262      10.000
 33.272      10.000
 33.282      10.000
 33.292      10.000
 33.302      10.000
 33.312      10.000
 33.322      10.000
 33.332      10.000
 33.342      10.000
 33.352      10.000
 33.362      10.000
 33.372      10.000
 33.382      10.000
 33.392      10.000
 33.402      10.000
 33.412      10.000
 33.422      10.000
 33.432      10.000
 33.442      10.000
 33.452      10.000
 33.462      10.000
 33.472      10.000
 33.482      10.000
 33.492      10.000
 33.502      10.000
 33.512      10.000
 33.522      10.000
 33.532      10.000
 33.542      10.000
 33.552      10.000
 33.562      10.000
 33.572      10.000
 33.582      10.000
 33.592      10.000
 33.602      10.000
 33.612      10.000
 33.622      10.000
 33.632      10.000
 33.642      10.000
 33.652      10.000
 33.663      10.000
 33.673      10.000
 33.683      10.000
 33.693      10.000
 33.703      10.000
 33.713      10.000
 33.723      10.000
 33.733      10.000
 33.743      10.000
 33.753      10.000
 33.763      10.000
 33.773      10.000
 33.783      10.000
 33.793      10.000
 33.803      10.000
 33.813      10.000
 33.823      10.000
 33.833      10.000
 33.843      10.000
 33.853      10.000
 33.863      10.000
 33.873      10.000
 33.883      10.000
 33.893      10.000
 33.903      10.000
 33.913      10.000
 33.923      10.000
 33.933      10.000
 33.943      10.000
 33.953      10.000
 33.963      10.000
 33.973      10.000
 33.983      10.000
 33.993      10.000
 34.003      10.000
 34.013      10.000
 34.023      10.000
 34.033      10.000
 34.043      10.000
 34.053      10.000
 34.063      10.000
 34.073      10.000
 34.083      10.000
 34.093      10.000
 34.103      10.000
 34.113      10.000
 34.123      10.000
 34.133      10.000
 34.143      10.000
 34.153      10.000
 34.163      10.000
 34.173      10.000
 34.183      10.000
 34.193      10.000
 34.203      10.000
 34.214      10.000
 34.224      10.000
 34.234      10.000
 34.244      10.000
 34.254      10.000
 34.264      10.000
 34.274      10.000
 34.284      10.000
 34.294      10.000
 34.304      10.000
 34.314      10.000
 34.324      10.000
 34.334      10.000
 34.344      10.000
 34.354      10.000
 34.364      10.000
 34.374      10.000
 34.384      10.000
 34.394      10.000
 34.404      10.000
 34.414      10.000
 34.424      10.000
 34.434      10.000
 34.444      10.000
 34.454      10.000
 34.464      10.000
 34.474      10.000
 34.484      10.000
 34.494      10.000
 34.504      10.000
 34.514      10.000
 34.524      10.000
 34.534      10.000
 34.544      10.000
 34.554      10.000
 34.564      10.000
 34.574      10.000
 34.584      10.000
 34.594      10.000
 34.604      10.000
 34.614      10.000
 34.624      10.000
 34.634      10.000
 34.644      10.000
 34.654      10.004
 34.664      10.013
 34.674      10.036
 34.684      10.094
 34.694      10.233
 34.704      10.548
 34.714      11.218
 34.724      12.560
 34.734      15.090
 34.744      19.571
 34.754      27.021
 34.764      38.632
 34.775      55.557
 34.785      78.563
 34.795     107.615
 34.805     141.436
 34.815     177.395
 34.825     211.654
 34.835     239.776
 34.845     257.649
 34.855     262.465
 34.865     253.439
 34.875     232.031
 34.885     201.545
 34.895     166.301
 34.905     130.639
 34.915      98.074
 34.925      70.810
 34.935      49.718
 34.945      34.538
 34.955      24.339
 34.965      17.926
 34.975      14.144
 34.985      12.049
 34.995      10.958
 35.005      10.424
 35.015      10.177
 35.025      10.070
 35.035      10.026
 35.045      10.009
 35.055      10.000
 35.065      10.000
 35.075      10.000
 35.085      10.000
 35.095      10.000
 35.105      10.000
 35.115      10.000
 35.125      10.000
 35.135      10.000
 35.145      10.000
 35.155      10.000
 35.165      10.000
 35.175      10.000
 35.185      10.000
 35.195      10.000
 35.205      10.000
 35.215      10.000
 35.225      10.000
 35.235      10.000
 35.245      10.000
 35.255      10.000
 35.265      10.000
 35.275      10.000
 35.285      10.000
 35.295      10.000
 35.305      10.000
 35.315      10.000
 35.326      10.000
 35.336      10.000
 35.346      10.000
 35.356      10.000
 35.366      10.000
 35.376      10.000
 35.386      10.000
 35.396      10.000
 35.406      10.000
 35.416      10.000
 35.426      10.000
 35.436      10.000
 35.446      10.000
 35.456      10.000
 35.466      10.000
 35.476      10.000
 35.486      10.000
 35.496      10.000
 35.506      10.000
 35.516      10.000
 35.526      10.000
 35.536      10.000
 35.546      10.000
 35.556      10.000
 35.566      10.000
 35.576      10.000
 35.586      10.000
 35.596      10.000
 35.606      10.000
 35.616      10.000
 35.626      10.000
 35.636      10.000
 35.646      10.000
 35.656      10.000
 35.666      10.000
 35.676      10.000
 35.686      10.000
 35.696      10.000
 35.706      10.000
 35.716      10.000
 35.726      10.000
 35.736      10.000
 35.746      10.000
 35.756      10.000
 35.766      10.000
 35.776      10.000
 35.786      10.000
 35.796      10.000
 35.806      10.000
 35.816      10.000
 35.826      10.000
 35.836      10.000
 35.846      10.000
 35.856      10.000
 35.866      10.000
 35.876      10.000
 35.887      10.000
 35.897      10.000
 35.907      10.000
 35.917      10.000
 35.927      10.000
 35.937      10.000
 35.947      10.000
 35.957      10.000
 35.967      10.000
 35.977      10.000
 35.987      10.000
 35.997      10.000
 36.007      10.000
 36.017      10.000
 36.027      10.000
 36.037      10.000
 36.047      10.000
 36.057      10.000
 36.067      10.000
 36.077      10.000
 36.087      10.000
 36.097      10.000
 36.107      10.000
 36.117      10.000
 36.127      10.000
 36.137      10.000
 36.147      10.000
 36.157      10.000
 36.167      10.000
 36.177      10.000
 36.187      10.000
 36.197      10.000
 36.207      10.000
 36.217      10.000
 36.227      10.000
 36.237      10.000
 36.247      10.000
 36.257      10.000
 36.267      10.000
 36.277      10.000
 36.287      10.000
 36.297      10.000
 36.307      10.000
 36.317      10.000
 36.327      10.000
 36.337      10.000
 36.347      10.000
 36.357      10.000
 36.367      10.000
 36.377      10.000
 36.387      10.000
 36.397      10.000
 36.407      10.000
 36.417      10.000
 36.427      10.000
 36.438      10.000
 36.448      10.000
 36.458      10.000
 36.468      10.000
 36.478      10.000
 36.488      10.000
 36.498      10.000
 36.508      10.000
 36.518      10.000
 36.528      10.000
 36.538      10.000
 36.548      10.000
 36.558      10.000
 36.568      10.000
 36.578      10.000
 36.588      10.000
 36.598      10.000
 36.608      10.000
 36.618      10.000
 36.628      10.000
 36.638      10.000
 36.648      10.000
 36.658      10.000
 36.668      10.000
 36.678      10.000
 36.688      10.000
 36.698      10.000
 36.708      10.000
 36.718      10.000
 36.728      10.000
 36.738      10.000
 36.748      10.000
 36.758      10.000
 36.768      10.000
 36.778      10.000
 36.788      10.000
 36.798      10.000
 36.808      10.000
 36.818      10.000
 36.828      10.000
 36.838      10.000
 36.848      10.000
 36.858      10.000
 36.868      10.000
 36.878      10.000
 36.888      10.000
 36.898      10.000
 36.908      10.000
 36.918      10.000
 36.928      10.000
 36.938      10.000
 36.948      10.000
 36.958      10.000
 36.968      10.000
 36.978      10.000
 36.988      10.000
 36.999      10.000
 37.009      10.000
 37.019      10.000
 37.029      10.000
 37.039      10.000
 37.049      10.000
 37.059      10.000
 37.069      10.000
 37.079      10.000
 37.089      10.000
 37.099      10.000
 37.109      10.000
 37.119      10.000
 37.129      10.000
 37.139      10.000
 37.149      10.000
 37.159      10.000
 37.169      10.000
 37.179      10.000
 37.189      10.000
 37.199      10.000
 37.209      10.000
 37.219      10.000
 37.229      10.000
 37.239      10.000
 37.249      10.000
 37.259      10.000
 37.269      10.000
 37.279      10.000
 37.289      10.000
 37.299      10.000
 37.309      10.000
 37.319      10.000
 37.329      10.000
 37.339      10.000
 37.349      10.000
 37.359      10.000
 37.369      10.000
 37.379      10.000
 37.389      10.000
 37.399      10.000
 37.409      10.000
 37.419      10.000
 37.429      10.000
 37.439      10.000
 37.449      10.000
 37.459      10.000
 37.469      10.000
 37.479      10.000
 37.489      10.000
 37.499      10.000
 37.509      10.000
 37.519      10.000
 37.529      10.000
 37.539      10.000
 37.549      10.026
 37.560      10.077
 37.570      10.212
 37.580      10.552
 37.590      11.359
 37.600      13.166
 37.610      16.978
 37.620      24.547
 37.630      38.684
 37.640      63.511
 37.650     104.401
 37.660     167.521
 37.670     258.621
 37.680     381.167
 37.690     534.126
 37.700     710.130
 37.710     894.509
 37.720    1066.964
 37.730    1204.680
 37.740    1287.253
 37.750    1301.624
 37.760    1245.460
 37.770    1127.723
 37.780     966.500
 37.790     784.230
 37.800     602.773
 37.810     439.280
 37.820     304.054
 37.830     200.489
 37.840     126.739
 37.850      77.669
 37.860      47.103
 37.870      29.242
 37.880      19.439
 37.890      14.378
 37.900      11.922
 37.910      10.798
 37.920      10.313
 37.930      10.116
 37.940      10.041
 37.950      10.000
 37.960      10.000
 37.970      10.000
 37.980      10.000
 37.990      10.000
 38.000      10.000
 38.010      10.000
 38.020      10.000
 38.030      10.000
 38.040      10.000
 38.050      10.000
 38.060      10.000
 38.070      10.000
 38.080      10.000
 38.090      10.000
 38.100      10.000
 38.111      10.000
 38.121      10.000
 38.131      10.000
 38.141      10.000
 38.151      10.000
 38.161      10.000
 38.171      10.000
 38.181      10.000
 38.191      10.000
 38.201      10.000
 38.211      10.000
 38.221      10.000
 38.231      10.000
 38.241      10.000
 38.251      10.000
 38.261      10.000
 38.271      10.000
 38.281      10.000
 38.291      10.000
 38.301      10.000
 38.311      10.000
 38.321      10.000
 38.331      10.000
 38.341      10.000
 38.351      10.000
 38.361      10.000
 38.371      10.000
 38.381      10.000
 38.391      10.000
 38.401      10.000
 38.411      10.000
 38.421      10.000
 38.431      10.000
 38.441      10.000
 38.451      10.000
 38.461      10.000
 38.471      10.000
 38.481      10.000
 38.491      10.000
 38.501      10.000
 38.511      10.000
 38.521      10.000
 38.531      10.000
 38.541      10.000
 38.551      10.000
 38.561      10.000
 38.571      10.000
 38.581      10.000
 38.591      10.000
 38.601      10.000
 38.611      10.000
 38.621      10.000
 38.631      10.000
 38.641      10.000
 38.651      10.000
 38.661      10.000
 38.672      10.000
 38.682      10.000
 38.692      10.000
 38.702      10.000
 38.712      10.000
 38.722      10.000
 38.732      10.000
 38.742      10.000
 38.752      10.000
 38.762      10.000
 38.772      10.000
 38.782      10.000
 38.792      10.000
 38.802      10.000
 38.812      10.000
 38.822      10.000
 38.832      10.000
 38.842      10.000
 38.852      10.000
 38.862      10.000
 38.872      10.000
 38.882      10.000
 38.892      10.000
 38.902      10.000
 38.912      10.000
 38.922      10.000
 38.932      10.000
 38.942      10.000
 38.952      10.000
 38.962      10.000
 38.972      10.000
 38.982      10.000
 38.992      10.000
 39.002      10.000
 39.012      10.000
 39.022      10.000
 39.032      10.000
 39.042      10.000
 39.052      10.000
 39.062      10.000
 39.072      10.000
 39.082      10.000
 39.092      10.000
 39.102      10.000
 39.112      10.000
 39.122      10.000
 39.132      10.000
 39.142      10.000
 39.152      10.000
 39.162      10.000
 39.172      10.000
 39.182      10.000
 39.192      10.000
 39.202      10.000
 39.212      10.000
 39.223      10.000
 39.233      10.000
 39.243      10.000
 39.253      10.000
 39.263      10.000
 39.273      10.000
 39.283      10.000
 39.293      10.000
 39.303      10.000
 39.313      10.000
 39.323      10.000
 39.333      10.000
 39.343      10.000
 39.353      10.000
 39.363      10.000
 39.373      10.000
 39.383      10.000
 39.393      10.000
 39.403      10.000
 39.413      10.000
 39.423      10.000
 39.433      10.000
 39.443      10.000
 39.453      10.000
 39.463      10.000
 39.473      10.000
 39.483      10.000
 39.493      10.000
 39.503      10.000
 39.513      10.000
 39.523      10.000
 39.533      10.000
 39.543      10.000
 39.553      10.000
 39.563      10.000
 39.573      10.000
 39.583      10.000
 39.593      10.000
 39.603      10.000
 39.613      10.000
 39.623      10.000
 39.633      10.000
 39.643      10.000
 39.653      10.000
 39.663      10.000
 39.673      10.000
 39.683      10.000
 39.693      10.000
 39.703      10.000
 39.713      10.000
 39.723      10.000
 39.733      10.000
 39.743      10.000
 39.753      10.000
 39.763      10.000
 39.773      10.000
 39.784      10.000
 39.794      10.000
 39.804      10.000
 39.814      10.000
 39.824      10.000
 39.834      10.000
 39.844      10.000
 39.854      10.000
 39.864      10.000
 39.874      10.000
 39.884      10.000
 39.894      10.000
 39.904      10.000
 39.914      10.000
 39.924      10.000
 39.934      10.000
 39.944      10.000
 39.954      10.000
 39.964      10.000
 39.974      10.000
 39.984      10.000
 39.994      10.000
 40.004      10.000
 40.014      10.000
 40.024      10.000
 40.034      10.000
 40.044      10.000
 40.054      10.000
 40.064      10.000
 40.074      10.000
 40.084      10.000
 40.094      10.000
 40.104      10.000
 40.114      10.000
 40.124      10.000
 40.134      10.000
 40.144      10.000
 40.154      10.000
 40.164      10.000
 40.174      10.000
 40.184      10.000
 40.194      10.000
 40.204      10.000
 40.214      10.000
 40.224      10.000
 40.234      10.000
 40.244      10.000
 40.254      10.000
 40.264      10.003
 40.274      10.007
 40.284      10.020
 40.294      10.054
 40.304      10.133
 40.314      10.312
 40.324      10.692
 40.335      11.452
 40.345      12.881
 40.355      15.409
 40.365      19.604
 40.375      26.128
 40.385      35.619
 40.395      48.493
 40.405      64.705
 40.415      83.537
 40.425     103.509
 40.435     122.458
 40.445     137.926
 40.455     147.646
 40.465     150.089
 40.475     144.857
 40.485     132.789
 40.495     115.752
 40.505      96.150
 40.515      76.382
 40.525      58.382
 40.535      43.354
 40.545      31.746
 40.555      23.412
 40.565      17.824
 40.575      14.318
 40.585      12.254
 40.595      11.113
 40.605      10.520
 40.615      10.229
 40.625      10.096
 40.635      10.038
 40.645      10.014
 40.655      10.005
 40.665      10.000
 40.675      10.000
 40.685      10.000
 40.695      10.000
 40.705      10.000
 40.715      10.000
 40.725      10.000
 40.735      10.000
 40.745      10.000
 40.755      10.000
 40.765      10.000
 40.775      10.000
 40.785      10.000
 40.795      10.000
 40.805      10.000
 40.815      10.000
 40.825      10.000
 40.835      10.000
 40.845      10.000
 40.855      10.000
 40.865      10.000
 40.875      10.000
 40.885      10.000
 40.896      10.000
 40.906      10.000
 40.916      10.000
 40.926      10.000
 40.936      10.000
 40.946      10.000
 40.956      10.000
 40.966      10.000
 40.976      10.000
 40.986      10.000
 40.996      10.000
 41.006      10.000
 41.016      10.000
 41.026      10.000
 41.036      10.000
 41.046      10.000
 41.056      10.000
 41.066      10.000
 41.076      10.000
 41.086      10.000
 41.096      10.000
 41.106      10.000
 41.116      10.000
 41.126      10.000
 41.136      10.000
 41.146      10.000
 41.156      10.000
 41.166      10.000
 41.176      10.000
 41.186      10.000
 41.196      10.000
 41.206      10.000
 41.216      10.000
 41.226      10.000
 41.236      10.000
 41.246      10.000
 41.256      10.000
 41.266      10.000
 41.276      10.000
 41.286      10.000
 41.296      10.000
 41.306      10.000
 41.316      10.000
 41.326      10.000
 41.336      10.000
 41.346      10.000
 41.356      10.000
 41.366      10.000
 41.376      10.000
 41.386      10.000
 41.396      10.000
 41.406      10.000
 41.416      10.000
 41.426      10.000
 41.436      10.000
 41.447      10.000
 41.457      10.000
 41.467      10.000
 41.477      10.000
 41.487      10.000
 41.497      10.000
 41.507      10.000
 41.517      10.000
 41.527      10.000
 41.537      10.000
 41.547      10.000
 41.557      10.000
 41.567      10.000
 41.577      10.000
 41.587      10.000
 41.597      10.000
 41.607      10.000
 41.617      10.000
 41.627      10.000
 41.637      10.000
 41.647      10.000
 41.657      10.000
 41.667      10.000
 41.677      10.000
 41.687      10.000
 41.697      10.000
 41.707      10.000
 41.717      10.000
 41.727      10.000
 41.737      10.000
 41.747      10.000
 41.757      10.000
 41.767      10.000
 41.777      10.000
 41.787      10.000
 41.797      10.000
 41.807      10.000
 41.817      10.000
 41.827      10.000
 41.837      10.000
 41.847      10.000
 41.857      10.000
 41.867      10.000
 41.877      10.000
 41.887      10.000
 41.897      10.000
 41.907      10.000
 41.917      10.000
 41.927      10.000
 41.937      10.000
 41.947      10.000
 41.957      10.000
 41.967      10.000
 41.977      10.000
 41.987      10.000
 41.997      10.000
 42.008      10.000
 42.018      10.000
 42.028      10.000
 42.038      10.000
 42.048      10.000
 42.058      10.000
 42.068      10.000
 42.078      10.000
 42.088      10.000
 42.098      10.000
 42.108      10.000
 42.118      10.000
 42.128      10.000
 42.138      10.000
 42.148      10.000
 42.158      10.000
 42.168      10.000
 42.178      10.000
 42.188      10.000
 42.198      10.000
 42.208      10.000
 42.218      10.000
 42.228      10.000
 42.238      10.000
 42.248      10.000
 42.258      10.000
 42.268      10.000
 42.278      10.000
 42.288      10.000
 42.298      10.000
 42.308      10.000
 42.318      10.000
 42.328      10.000
 42.338      10.000
 42.348      10.000
 42.358      10.000
 42.368      10.000
 42.378      10.000
 42.388      10.000
 42.398      10.000
 42.408      10.000
 42.418      10.000
 42.428      10.000
 42.438      10.000
 42.448      10.000
 42.458      10.000
 42.468      10.000
 42.478      10.000
 42.488      10.000
 42.498      10.000
 42.508      10.000
 42.518      10.000
 42.528      10.000
 42.538      10.000
 42.548      10.000
 42.558      10.000
 42.569      10.000
 42.579      10.000
 42.589      10.000
 42.599      10.000
 42.609      10.000
 42.619      10.000
 42.629      10.000
 42.639      10.000
 42.649      10.000
 42.659      10.000
 42.669      10.000
 42.679      10.000
 42.689      10.000
 42.699      10.000
 42.709      10.000
 42.719      10.000
 42.729      10.000
 42.739      10.000
 42.749      10.000
 42.759      10.000
 42.769      10.000
 42.779      10.000
 42.789      10.000
 42.799      10.000
 42.809      10.000
 42.819      10.000
 42.829      10.000
 42.839      10.016
 42.849      10.047
 42.859      10.130
 42.869      10.337
 42.879      10.826
 42.889      11.918
 42.899      14.209
 42.909      18.738
 42.919      27.158
 42.929      41.866
 42.939      65.979
 42.949     103.033
 42.959     156.215
 42.969     227.362
 42.979     315.639
 42.989     416.507
 42.999     521.400
 43.009     618.572
 43.019     694.956
 43.029     739.201
 43.039     744.287
 43.049     709.388
 43.059     640.092
 43.069     546.899
 43.079     442.750
 43.089     339.925
 43.099     247.918
 43.109     172.283
 43.120     114.701
 43.130      73.895
 43.140      46.874
 43.150      30.132
 43.160      20.397
 43.170      15.078
 43.180      12.346
 43.190      11.025
 43.200      10.424
 43.210      10.166
 43.220      10.061
 43.230      10.021
 43.240      10.000
 43.250      10.000
 43.260      10.000
 43.270      10.000
 43.280      10.000
 43.290      10.000
 43.300      10.000
 43.310      10.000
 43.320      10.000
 43.330      10.000
 43.340      10.000
 43.350      10.000
 43.360      10.000
 43.370      10.000
 43.380      10.000
 43.390      10.000
 43.400      10.000
 43.410      10.000
 43.420      10.000
 43.430      10.000
 43.440      10.000
 43.450      10.000
 43.460      10.000
 43.470      10.000
 43.480      10.000
 43.490      10.000
 43.500      10.000
 43.510      10.000
 43.520      10.000
 43.530      10.000
 43.540      10.000
 43.550      10.000
 43.560      10.000
 43.570      10.000
 43.580      10.000
 43.590      10.000
 43.600      10.000
 43.610      10.000
 43.620      10.000
 43.630      10.000
 43.640      10.000
 43.650      10.000
 43.660      10.000
 43.670      10.000
 43.681      10.000
 43.691      10.000
 43.701      10.000
 43.711      10.000
 43.721      10.000
 43.731      10.000
 43.741      10.000
 43.751      10.000
 43.761      10.000
 43.771      10.000
 43.781      10.000
 43.791      10.000
 43.801      10.000
 43.811      10.000
 43.821      10.000
 43.831      10.000
 43.841      10.000
 43.851      10.000
 43.861      10.000
 43.871      10.000
 43.881      10.000
 43.891      10.000
 43.901      10.000
 43.911      10.000
 43.921      10.000
 43.931      10.000
 43.941      10.000
 43.951      10.000
 43.961      10.000
 43.971      10.000
 43.981      10.000
 43.991      10.000
 44.001      10.000
 44.011      10.000
 44.021      10.000
 44.031      10.000
 44.041      10.000
 44.051      10.000
 44.061      10.000
 44.071      10.000
 44.081      10.000
 44.091      10.000
 44.101      10.000
 44.111      10.000
 44.121      10.000
 44.131      10.000
 44.141      10.000
 44.151      10.000
 44.161      10.000
 44.171      10.000
 44.181      10.000
 44.191      10.000
 44.201      10.000
 44.211      10.000
 44.221      10.000
 44.232      10.000
 44.242      10.000
 44.252      10.000
 44.262      10.000
 44.272      10.000
 44.282      10.000
 44.292      10.000
 44.302      10.000
 44.312      10.000
 44.322      10.000
 44.332      10.000
 44.342      10.000
 44.352      10.000
 44.362      10.000
 44.372      10.000
 44.382      10.000
 44.392      10.000
 44.402      10.000
 44.412      10.000
 44.422      10.000
 44.432      10.000
 44.442      10.000
 44.452      10.000
 44.462      10.000
 44.472      10.000
 44.482      10.000
 44.492      10.000
 44.502      10.000
 44.512      10.000
 44.522      10.000
 44.532      10.000
 44.542      10.000
 44.552      10.000
 44.562      10.000
 44.572      10.000
 44.582      10.000
 44.592      10.000
 44.602      10.000
 44.612      10.000
 44.622      10.000
 44.632      10.000
 44.642      10.000
 44.652      10.000
 44.662      10.000
 44.672      10.000
 44.682      10.000
 44.692      10.000
 44.702      10.000
 44.712      10.000
 44.722      10.000
 44.732      10.000
 44.742      10.000
 44.752      10.000
 44.762      10.000
 44.772      10.000
 44.782      10.000
 44.793      10.000
 44.803      10.000
 44.813      10.000
 44.823      10.000
 44.833      10.000
 44.843      10.000
 44.853      10.000
 44.863      10.000
 44.873      10.000
 44.883      10.000
 44.893      10.000
 44.903      10.000
 44.913      10.000
 44.923      10.000
 44.933      10.000
 44.943      10.000
 44.953      10.000
 44.963      10.000
 44.973      10.000
 44.983      10.000
 44.993      10.000
 45.003      10.000
 45.013      10.000
 45.023      10.000
 45.033      10.000
 45.043      10.000
 45.053      10.000
 45.063      10.000
 45.073      10.000
 45.083      10.000
 45.093      10.000
 45.103      10.000
 45.113      10.000
 45.123      10.000
 45.133      10.000
 45.143      10.000
 45.153      10.000
 45.163      10.000
 45.173      10.000
 45.183      10.000
 45.193      10.000
 45.203      10.000
 45.213      10.000
 45.223      10.000
 45.233      10.000
 45.243      10.000
 45.253      10.000
 45.263      10.000
 45.273      10.000
 45.283      10.000
 45.293      10.010
 45.303      10.028
 45.313      10.076
 45.323      10.198
 45.333      10.486
 45.344      11.127
 45.354      12.474
 45.364      15.137
 45.374      20.090
 45.384      28.743
 45.394      42.934
 45.404      64.736
 45.414      96.062
 45.424     137.969
 45.434     189.983
 45.444     249.437
 45.454     311.290
 45.464     368.602
 45.474     413.728
 45.484     439.908
 45.494     443.007
 45.504     422.523
 45.514     381.737
 45.524     326.852
 45.534     265.429
 45.544     204.783
 45.554     150.496
 45.564     105.854
 45.574      71.857
 45.584      47.758
 45.594      31.800
 45.604      21.902
 45.614      16.148
 45.624      13.004
 45.634      11.388
 45.644      10.607
 45.654      10.251
 45.664      10.098
 45.674      10.036
 45.684      10.013
 45.694      10.000
 45.704      10.000
 45.714      10.000
 45.724      10.000
 45.734      10.000
 45.744      10.000
 45.754      10.000
 45.764      10.000
 45.774      10.000
 45.784      10.000
 45.794      10.000
 45.804      10.000
 45.814      10.000
 45.824      10.000
 45.834      10.000
 45.844      10.000
 45.854      10.000
 45.864      10.000
 45.874      10.000
 45.884      10.000
 45.894      10.000
 45.905      10.000
 45.915      10.000
 45.925      10.000
 45.935      10.000
 45.945      10.000
 45.955      10.000
 45.965      10.000
 45.975      10.000
 45.985      10.000
 45.995      10.000
 46.005      10.000
 46.015      10.000
 46.025      10.000
 46.035      10.000
 46.045      10.000
 46.055      10.000
 46.065      10.000
 46.075      10.000
 46.085      10.000
 46.095      10.000
 46.105      10.000
 46.115      10.000
 46.125      10.000
 46.135      10.000
 46.145      10.000
 46.155      10.000
 46.165      10.000
 46.175      10.000
 46.185      10.000
 46.195      10.000
 46.205      10.000
 46.215      10.000
 46.225      10.000
 46.235      10.000
 46.245      10.000
 46.255      10.000
 46.265      10.000
 46.275      10.000
 46.285      10.000
 46.295      10.000
 46.305      10.000
 46.315      10.000
 46.325      10.000
 46.335      10.000
 46.345      10.000
 46.355      10.000
 46.365      10.000
 46.375      10.000
 46.385      10.000
 46.395      10.000
 46.405      10.000
 46.415      10.000
 46.425      10.000
 46.435      10.000
 46.445      10.000
 46.456      10.000
 46.466      10.000
 46.476      10.000
 46.486      10.000
 46.496      10.000
 46.506      10.000
 46.516      10.000
 46.526      10.000
 46.536      10.000
 46.546      10.000
 46.556      10.000
 46.566      10.000
 46.576      10.000
 46.586      10.000
 46.596      10.000
 46.606      10.000
 46.616      10.000
 46.626      10.000
 46.636      10.000
 46.646      10.000
 46.656      10.000
 46.666      10.000
 46.676      10.000
 46.686      10.000
 46.696      10.000
 46.706      10.000
 46.716      10.000
 46.726      10.000
 46.736      10.000
 46.746      10.000
 46.756      10.000
 46.766      10.000
 46.776      10.000
 46.786      10.000
 46.796      10.000
 46.806      10.000
 46.816      10.000
 46.826      10.000
 46.836      10.000
 46.846      10.000
 46.856      10.000
 46.866      10.000
 46.876      10.000
 46.886      10.000
 46.896      10.000
 46.906      10.000
 46.916      10.000
 46.926      10.000
 46.936      10.000
 46.946      10.000
 46.956      10.000
 46.966      10.000
 46.976      10.000
 46.986      10.000
 46.996      10.000
 47.006      10.000
 47.017      10.000
 47.027      10.000
 47.037      10.000
 47.047      10.000
 47.057      10.000
 47.067      10.000
 47.077      10.000
 47.087      10.000
 47.097      10.000
 47.107      10.000
 47.117      10.000
 47.127      10.000
 47.137      10.000
 47.147      10.000
 47.157      10.000
 47.167      10.000
 47.177      10.000
 47.187      10.000
 47.197      10.000
 47.207      10.000
 47.217      10.000
 47.227      10.000
 47.237      10.000
 47.247      10.000
 47.257      10.000
 47.267      10.000
 47.277      10.000
 47.287      10.000
 47.297      10.000
 47.307      10.000
 47.317      10.000
 47.327      10.000
 47.337      10.000
 47.347      10.000
 47.357      10.000
 47.367      10.000
 47.377      10.000
 47.387      10.000
 47.397      10.000
 47.407      10.000
 47.417      10.000
 47.427      10.000
 47.437      10.000
 47.447      10.000
 47.457      10.000
 47.467      10.000
 47.477      10.000
 47.487      10.000
 47.497      10.000
 47.507      10.000
 47.517      10.000
 47.527      10.000
 47.537      10.000
 47.547      10.000
 47.557      10.000
 47.568      10.000
 47.578      10.000
 47.588      10.000
 47.598      10.000
 47.608      10.000
 47.618      10.000
 47.628      10.000
 47.638      10.000
 47.648      10.008
 47.658      10.023
 47.668      10.062
 47.678      10.163
 47.688      10.401
 47.698      10.935
 47.708      12.062
 47.718      14.304
 47.728      18.494
 47.738      25.856
 47.748      38.004
 47.758      56.772
 47.768      83.888
 47.778     120.409
 47.788     166.050
 47.798     218.622
 47.808     273.829
 47.818     325.556
 47.828     366.997
 47.838     392.019
 47.848     396.669
 47.858     380.193
 47.868     345.236
 47.878     297.128
 47.888     242.625
 47.898     188.267
 47.908     139.217
 47.918      98.593
 47.928      67.453
 47.938      45.235
 47.948      30.443
 47.958      21.219
 47.968      15.824
 47.978      12.859
 47.988      11.328
 47.998      10.583
 48.008      10.242
 48.018      10.095
 48.028      10.035
 48.038      10.012
 48.048      10.000
 48.058      10.000
 48.068      10.000
 48.078      10.000
 48.088      10.000
 48.098      10.000
 48.108      10.000
 48.118      10.000
 48.129      10.000
 48.139      10.000
 48.149      10.000
 48.159      10.000
 48.169      10.000
 48.179      10.000
 48.189      10.000
 48.199      10.000
 48.209      10.000
 48.219      10.000
 48.229      10.000
 48.239      10.000
 48.249      10.000
 48.259      10.000
 48.269      10.000
 48.279      10.000
 48.289      10.000
 48.299      10.000
 48.309      10.000
 48.319      10.000
 48.329      10.000
 48.339      10.000
 48.349      10.000
 48.359      10.000
 48.369      10.000
 48.379      10.000
 48.389      10.000
 48.399      10.000
 48.409      10.000
 48.419      10.000
 48.429      10.000
 48.439      10.000
 48.449      10.000
 48.459      10.000
 48.469      10.000
 48.479      10.000
 48.489      10.000
 48.499      10.000
 48.509      10.000
 48.519      10.000
 48.529      10.000
 48.539      10.000
 48.549      10.000
 48.559      10.000
 48.569      10.000
 48.579      10.000
 48.589      10.000
 48.599      10.000
 48.609      10.000
 48.619      10.000
 48.629      10.000
 48.639      10.000
 48.649      10.000
 48.659      10.000
 48.669      10.000
 48.679      10.000
 48.690      10.000
 48.700      10.000
 48.710      10.000
 48.720      10.000
 48.730      10.000
 48.740      10.000
 48.750      10.000
 48.760      10.000
 48.770      10.000
 48.780      10.000
 48.790      10.000
 48.800      10.000
 48.810      10.000
 48.820      10.000
 48.830      10.000
 48.840      10.000
 48.850      10.000
 48.860      10.000
 48.870      10.000
 48.880      10.000
 48.890      10.000
 48.900      10.000
 48.910      10.000
 48.920      10.000
 48.930      10.000
 48.940      10.000
 48.950      10.000
 48.960      10.000
 48.970      10.000
 48.980      10.000
 48.990      10.000
 49.000      10.000
 49.010      10.000
 49.020      10.000
 49.030      10.000
 49.040      10.000
 49.050      10.000
 49.060      10.000
 49.070      10.000
 49.080      10.000
 49.090      10.000
 49.100      10.000
 49.110      10.000
 49.120      10.000
 49.130      10.000
 49.140      10.000
 49.150      10.000
 49.160      10.000
 49.170      10.000
 49.180      10.000
 49.190      10.000
 49.200      10.000
 49.210      10.000
 49.220      10.000
 49.230      10.000
 49.241      10.000
 49.251      10.000
 49.261      10.000
 49.271      10.000
 49.281      10.000
 49.291      10.000
 49.301      10.000
 49.311      10.000
 49.321      10.000
 49.331      10.000
 49.341      10.000
 49.351      10.000
 49.361      10.000
 49.371      10.000
 49.381      10.000
 49.391      10.000
 49.401      10.000
 49.411      10.000
 49.421      10.000
 49.431      10.000
 49.441      10.000
 49.451      10.000
 49.461      10.000
 49.471      10.000
 49.481      10.000
 49.491      10.000
 49.501      10.000
 49.511      10.000
 49.521      10.000
 49.531      10.000
 49.541      10.000
 49.551      10.000
 49.561      10.000
 49.571      10.000
 49.581      10.000
 49.591      10.000
 49.601      10.000
 49.611      10.000
 49.621      10.000
 49.631      10.000
 49.641      10.000
 49.651      10.000
 49.661      10.000
 49.671      10.000
 49.681      10.000
 49.691      10.000
 49.701      10.000
 49.711      10.000
 49.721      10.000
 49.731      10.000
 49.741      10.000
 49.751      10.000
 49.761      10.000
 49.771      10.000
 49.781      10.000
 49.791      10.000
 49.802      10.000
 49.812      10.000
 49.822      10.000
 49.832      10.000
 49.842      10.000
 49.852      10.000
 49.862      10.000
 49.872      10.000
 49.882      10.000
 49.892      10.000
 49.902      10.000
 49.912      10.000
 49.922      10.010
 49.932      10.029
 49.942      10.079
 49.952      10.203
 49.962      10.490
 49.972      11.120
 49.982      12.422
 49.992      14.954
 50.002      19.586
 50.012      27.544
 50.022      40.377
 50.032      59.738
 50.042      87.031
 50.052     122.844
 50.062     166.361
 50.072     214.932
 50.082     264.071
 50.092     307.917
 50.102     340.422
 50.112     356.638
 50.122     353.967
 50.132     332.843
 50.142     296.616
 50.152     250.663
 50.162     201.151
 50.172     153.607
 50.182     112.049
 50.192      78.593
 50.202      53.609
 50.212      36.220
 50.222      24.914
 50.232      18.024
 50.242      14.083
 50.252      11.965
 50.262      10.895
 50.272      10.385
 50.282      10.157
 50.292      10.060
 50.302      10.022
 50.312      10.008
 50.322      10.000
 50.332      10.000
 50.342      10.000
 50.353      10.000
 50.363      10.000
 50.373      10.000
 50.383      10.000
 50.393      10.000
 50.403      10.000
 50.413      10.000
 50.423      10.000
 50.433      10.000
 50.443      10.000
 50.453      10.000
 50.463      10.000
 50.473      10.000
 50.483      10.000
 50.493      10.000
 50.503      10.000
 50.513      10.000
 50.523      10.000
 50.533      10.000
 50.543      10.000
 50.553      10.000
 50.563      10.000
 50.573      10.000
 50.583      10.000
 50.593      10.000
 50.603      10.000
 50.613      10.000
 50.623      10.000
 50.633      10.000
 50.643      10.000
 50.653      10.000
 50.663      10.000
 50.673      10.000
 50.683      10.000
 50.693      10.000
 50.703      10.000
 50.713      10.000
 50.723      10.000
 50.733      10.000
 50.743      10.000
 50.753      10.000
 50.763      10.000
 50.773      10.000
 50.783      10.000
 50.793      10.000
 50.803      10.000
 50.813      10.000
 50.823      10.000
 50.833      10.000
 50.843      10.000
 50.853      10.000
 50.863      10.000
 50.873      10.000
 50.883      10.000
 50.893      10.000
 50.903      10.000
 50.914      10.000
 50.924      10.000
 50.934      10.000
 50.944      10.000
 50.954      10.000
 50.964      10.000
 50.974      10.000
 50.984      10.000
 50.994      10.000
 51.004      10.000
 51.014      10.000
 51.024      10.000
 51.034      10.000
 51.044      10.000
 51.054      10.000
 51.064      10.000
 51.074      10.000
 51.084      10.000
 51.094      10.000
 51.104      10.000
 51.114      10.000
 51.124      10.000
 51.134      10.000
 51.144      10.000
 51.154      10.000
 51.164      10.000
 51.174      10.000
 51.184      10.000
 51.194      10.000
 51.204      10.000
 51.214      10.000
 51.224      10.000
 51.234      10.000
 51.244      10.000
 51.254      10.000
 51.264      10.000
 51.274      10.000
 51.284      10.000
 51.294      10.000
 51.304      10.000
 51.314      10.000
 51.324      10.000
 51.334      10.000
 51.344      10.000
 51.354      10.000
 51.364      10.000
 51.374      10.000
 51.384      10.000
 51.394      10.000
 51.404      10.000
 51.414      10.000
 51.424      10.000
 51.434      10.000
 51.444      10.000
 51.454      10.000
 51.465      10.000
 51.475      10.000
 51.485      10.000
 51.495      10.000
 51.505      10.000
 51.515      10.000
 51.525      10.000
 51.535      10.000
 51.545      10.000
 51.555      10.000
 51.565      10.000
 51.575      10.000
 51.585      10.000
 51.595      10.000
 51.605      10.000
 51.615      10.000
 51.625      10.000
 51.635      10.000
 51.645      10.000
 51.655      10.000
 51.665      10.000
 51.675      10.000
 51.685      10.000
 51.695      10.000
 51.705      10.000
 51.715      10.000
 51.725      10.000
 51.735      10.000
 51.745      10.000
 51.755      10.000
 51.765      10.000
 51.775      10.000
 51.785      10.000
 51.795      10.000
 51.805      10.000
 51.815      10.000
 51.825      10.000
 51.835      10.000
 51.845      10.000
 51.855      10.000
 51.865      10.000
 51.875      10.000
 51.885      10.000
 51.895      10.000
 51.905      10.000
 51.915      10.000
 51.925      10.000
 51.935      10.000
 51.945      10.000
 51.955      10.000
 51.965      10.000
 51.975      10.000
 51.985      10.000
 51.995      10.000
 52.005      10.000
 52.015      10.000
 52.026      10.000
 52.036      10.000
 52.046      10.000
 52.056      10.000
 52.066      10.000
 52.076      10.000
 52.086      10.000
 52.096      10.000
 52.106      10.000
 52.116      10.019
 52.126      10.054
 52.136      10.150
 52.146      10.391
 52.156      10.964
 52.166      12.250
 52.176      14.968
 52.186      20.373
 52.196      30.487
 52.206      48.273
 52.216      77.630
 52.226     123.038
 52.236     188.735
 52.246     277.271
 52.256     388.029
 52.266     515.747
 52.276     649.993
 52.286     776.039
 52.296     877.314
 52.306     938.775
 52.316     950.758
 52.326     911.321
 52.336     826.798
 52.346     710.137
 52.356     577.605
 52.366     445.285
 52.376     325.744
 52.386     226.635
 52.396     150.591
 52.406      96.302
 52.416      60.109
 52.426      37.513
 52.436      24.292
 52.446      17.022
 52.456      13.264
 52.466      11.435
 52.476      10.597
 52.486      10.235
 52.496      10.087
 52.506      10.031
 52.516      10.000
 52.526      10.000
 52.536      10.000
 52.546      10.000
 52.556      10.000
 52.566      10.000
 52.576      10.000
 52.587      10.000
 52.597      10.000
 52.607      10.000
 52.617      10.000
 52.627      10.000
 52.637      10.000
 52.647      10.000
 52.657      10.000
 52.667      10.000
 52.677      10.000
 52.687      10.000
 52.697      10.000
 52.707      10.000
 52.717      10.000
 52.727      10.000
 52.737      10.000
 52.747      10.000
 52.757      10.000
 52.767      10.000
 52.777      10.000
 52.787      10.000
 52.797      10.000
 52.807      10.000
 52.817      10.000
 52.827      10.000
 52.837      10.000
 52.847      10.000
 52.857      10.000
 52.867      10.000
 52.877      10.000
 52.887      10.000
 52.897      10.000
 52.907      10.000
 52.917      10.000
 52.927      10.000
 52.937      10.000
 52.947      10.000
 52.957      10.000
 52.967      10.000
 52.977      10.000
 52.987      10.000
 52.997      10.000
 53.007      10.000
 53.017      10.000
 53.027      10.000
 53.037      10.000
 53.047      10.000
 53.057      10.000
 53.067      10.000
 53.077      10.000
 53.087      10.000
 53.097      10.000
 53.107      10.000
 53.117      10.000
 53.127      10.000
 53.138      10.000
 53.148      10.000
 53.158      10.000
 53.168      10.000
 53.178      10.000
 53.188      10.000
 53.198      10.000
 53.208      10.000
 53.218      10.000
 53.228      10.000
 53.238      10.000
 53.248      10.000
 53.258      10.000
 53.268      10.000
 53.278      10.000
 53.288      10.000
 53.298      10.000
 53.308      10.000
 53.318      10.000
 53.328      10.000
 53.338      10.000
 53.348      10.000
 53.358      10.000
 53.368      10.000
 53.378      10.000
 53.388      10.000
 53.398      10.000
 53.408      10.000
 53.418      10.000
 53.428      10.000
 53.438      10.000
 53.448      10.000
 53.458      10.000
 53.468      10.000
 53.478      10.000
 53.488      10.000
 53.498      10.000
 53.508      10.000
 53.518      10.000
 53.528      10.000
 53.538      10.000
 53.548      10.000
 53.558      10.000
 53.568      10.000
 53.578      10.000
 53.588      10.000
 53.598      10.000
 53.608      10.000
 53.618      10.000
 53.628      10.000
 53.638      10.000
 53.648      10.000
 53.658      10.000
 53.668      10.000
 53.678      10.000
 53.688      10.000
 53.699      10.000
 53.709      10.000
 53.719      10.000
 53.729      10.000
 53.739      10.000
 53.749      10.000
 53.759      10.000
 53.769      10.000
 53.779      10.000
 53.789      10.000
 53.799      10.000
 53.809      10.000
 53.819      10.000
 53.829      10.000
 53.839      10.000
 53.849      10.000
 53.859      10.000
 53.869      10.000
 53.879      10.000
 53.889      10.000
 53.899      10.000
 53.909      10.000
 53.919      10.000
 53.929      10.000
 53.939      10.000
 53.949      10.000
 53.959      10.000
 53.969      10.000
 53.979      10.000
 53.989      10.000
 53.999      10.000
 54.009      10.000
 54.019      10.000
 54.029      10.000
 54.039      10.000
 54.049      10.000
 54.059      10.000
 54.069      10.000
 54.079      10.000
 54.089      10.000
 54.099      10.000
 54.109      10.000
 54.119      10.000
 54.129      10.000
 54.139      10.000
 54.149      10.000
 54.159      10.000
 54.169      10.000
 54.179      10.000
 54.189      10.000
 54.199      10.000
 54.209      10.000
 54.219      10.000
 54.229      10.000
 54.239      10.000
 54.250      10.000
 54.260      10.000
 54.270      10.000
 54.280      10.000
 54.290      10.000
 54.300      10.000
 54.310      10.000
 54.320      10.000
 54.330      10.000
 54.340      10.000
 54.350      10.000
 54.360      10.000
 54.370      10.000
 54.380      10.000
 54.390      10.000
 54.400      10.000
 54.410      10.000
 54.420      10.000
 54.430      10.000
 54.440      10.000
 54.450      10.000
 54.460      10.000
 54.470      10.000
 54.480      10.000
 54.490      10.000
 54.500      10.000
 54.510      10.000
 54.520      10.000
 54.530      10.000
 54.540      10.000
 54.550      10.000
 54.560      10.000
 54.570      10.000
 54.580      10.000
 54.590      10.000
 54.600      10.000
 54.610      10.000
 54.620      10.000
 54.630      10.000
 54.640      10.000
 54.650      10.000
 54.660      10.000
 54.670      10.000
 54.680      10.000
 54.690      10.000
 54.700      10.000
 54.710      10.000
 54.720      10.000
 54.730      10.000
 54.740      10.000
 54.750      10.000
 54.760      10.000
 54.770      10.000
 54.780      10.000
 54.790      10.000
 54.800      10.000
 54.811      10.000
 54.821      10.000
 54.831      10.000
 54.841      10.000
 54.851      10.000
 54.861      10.000
 54.871      10.000
 54.881      10.000
 54.891      10.000
 54.901      10.000
 54.911      10.000
 54.921      10.000
 54.931      10.000
 54.941      10.000
 54.951      10.000
 54.961      10.000
 54.971      10.000
 54.981      10.000
 54.991      10.000
 55.001      10.000
 55.011      10.000
 55.021      10.000
 55.031      10.000
 55.041      10.000
 55.051      10.000
 55.061      10.000
 55.071      10.000
 55.081      10.000
 55.091      10.000
 55.101      10.000
 55.111      10.000
 55.121      10.000
 55.131      10.000
 55.141      10.000
 55.151      10.000
 55.161      10.000
 55.171      10.000
 55.181      10.000
 55.191      10.000
 55.201      10.000
 55.211      10.000
 55.221      10.000
 55.231      10.000
 55.241      10.000
 55.251      10.000
 55.261      10.000
 55.271      10.000
 55.281      10.000
 55.291      10.000
 55.301      10.000
 55.311      10.000
 55.321      10.000
 55.331      10.000
 55.341      10.000
 55.351      10.000
 55.362      10.000
 55.372      10.000
 55.382      10.000
 55.392      10.000
 55.402      10.000
 55.412      10.000
 55.422      10.000
 55.432      10.000
 55.442      10.000
 55.452      10.000
 55.462      10.000
 55.472      10.000
 55.482      10.000
 55.492      10.000
 55.502      10.000
 55.512      10.000
 55.522      10.000
 55.532      10.000
 55.542      10.000
 55.552      10.000
 55.562      10.000
 55.572      10.000
 55.582      10.000
 55.592      10.000
 55.602      10.000
 55.612      10.000
 55.622      10.000
 55.632      10.000
 55.642      10.000
 55.652      10.000
 55.662      10.000
 55.672      10.000
 55.682      10.000
 55.692      10.000
 55.702      10.000
 55.712      10.000
 55.722      10.000
 55.732      10.000
 55.742      10.000
 55.752      10.000
 55.762      10.000
 55.772      10.000
 55.782      10.000
 55.792      10.000
 55.802      10.000
 55.812      10.000
 55.822      10.000
 55.832      10.000
 55.842      10.000
 55.852      10.000
 55.862      10.000
 55.872      10.000
 55.882      10.000
 55.892      10.000
 55.902      10.000
 55.912      10.000
 55.923      10.000
 55.933      10.000
 55.943      10.000
 55.953      10.000
 55.963      10.000
 55.973      10.000
 55.983      10.000
 55.993      10.000
 56.003      10.000
 56.013      10.000
 56.023      10.000
 56.033      10.000
 56.043      10.000
 56.053      10.000
 56.063      10.000
 56.073      10.000
 56.083      10.000
 56.093      10.000
 56.103      10.000
 56.113      10.000
 56.123      10.000
 56.133      10.000
 56.143      10.000
 56.153      10.000
 56.163      10.000
 56.173      10.000
 56.183      10.000
 56.193      10.000
 56.203      10.000
 56.213      10.000
 56.223      10.000
 56.233      10.000
 56.243      10.000
 56.253      10.000
 56.263      10.000
 56.273      10.000
 56.283      10.000
 56.293      10.000
 56.303      10.000
 56.313      10.000
 56.323      10.000
 56.333      10.016
 56.343      10.047
 56.353      10.126
 56.363      10.320
 56.373      10.771
 56.383      11.757
 56.393      13.787
 56.403      17.723
 56.413      24.895
 56.423      37.170
 56.433      56.880
 56.443      86.510
 56.453     128.108
 56.463     182.478
 56.474     248.208
 56.484     321.179
 56.494     394.503
 56.504     459.389
 56.514     506.796
 56.524     529.483
 56.534     523.790
 56.544     490.656
 56.554     435.320
 56.564     365.985
 56.574     291.826
 56.584     221.040
 56.594     159.458
 56.604     110.129
 56.614      73.451
 56.624      48.032
 56.634      31.562
 56.644      21.563
 56.654      15.864
 56.664      12.813
 56.674      11.277
 56.684      10.548
 56.694      10.222
 56.704      10.085
 56.714      10.031
 56.724      10.011
 56.734      10.000
 56.744      10.000
 56.754      10.000
 56.764      10.000
 56.774      10.000
 56.784      10.000
 56.794      10.000
 56.804      10.000
 56.814      10.000
 56.824      10.000
 56.834      10.000
 56.844      10.000
 56.854      10.000
 56.864      10.000
 56.874      10.000
 56.884      10.000
 56.894      10.000
 56.904      10.000
 56.914      10.000
 56.924      10.000
 56.934      10.000
 56.944      10.000
 56.954      10.000
 56.964      10.000
 56.974      10.000
 56.984      10.000
 56.994      10.000
 57.004      10.000
 57.014      10.000
 57.024      10.000
 57.035      10.000
 57.045      10.000
 57.055      10.000
 57.065      10.000
 57.075      10.000
 57.085      10.000
 57.095      10.000
 57.105      10.000
 57.115      10.000
 57.125      10.000
 57.135      10.000
 57.145      10.000
 57.155      10.000
 57.165      10.000
 57.175      10.000
 57.185      10.000
 57.195      10.000
 57.205      10.000
 57.215      10.000
 57.225      10.000
 57.235      10.000
 57.245      10.000
 57.255      10.000
 57.265      10.000
 57.275      10.000
 57.285      10.000
 57.295      10.000
 57.305      10.000
 57.315      10.000
 57.325      10.000
 57.335      10.000
 57.345      10.000
 57.355      10.000
 57.365      10.000
 57.375      10.000
 57.385      10.000
 57.395      10.000
 57.405      10.000
 57.415      10.000
 57.425      10.000
 57.435      10.000
 57.445      10.000
 57.455      10.000
 57.465      10.000
 57.475      10.000
 57.485      10.000
 57.495      10.000
 57.505      10.000
 57.515      10.000
 57.525      10.000
 57.535      10.000
 57.545      10.000
 57.555      10.000
 57.565      10.000
 57.575      10.000
 57.585      10.000
 57.596      10.000
 57.606      10.000
 57.616      10.000
 57.626      10.000
 57.636      10.000
 57.646      10.000
 57.656      10.000
 57.666      10.000
 57.676      10.000
 57.686      10.000
 57.696      10.000
 57.706      10.000
 57.716      10.000
 57.726      10.000
 57.736      10.000
 57.746      10.000
 57.756      10.000
 57.766      10.000
 57.776      10.000
 57.786      10.000
 57.796      10.000
 57.806      10.000
 57.816      10.000
 57.826      10.000
 57.836      10.000
 57.846      10.000
 57.856      10.000
 57.866      10.000
 57.876      10.000
 57.886      10.000
 57.896      10.000
 57.906      10.000
 57.916      10.000
 57.926      10.000
 57.936      10.000
 57.946      10.000
 57.956      10.000
 57.966      10.000
 57.976      10.000
 57.986      10.000
 57.996      10.000
 58.006      10.000
 58.016      10.000
 58.026      10.000
 58.036      10.000
 58.046      10.000
 58.056      10.000
 58.066      10.000
 58.076      10.000
 58.086      10.000
 58.096      10.000
 58.106      10.000
 58.116      10.000
 58.126      10.000
 58.136      10.000
 58.147      10.000
 58.157      10.000
 58.167      10.000
 58.177      10.000
 58.187      10.000
 58.197      10.000
 58.207      10.000
 58.217      10.000
 58.227      10.000
 58.237      10.000
 58.247      10.000
 58.257      10.000
 58.267      10.000
 58.277      10.000
 58.287      10.000
 58.297      10.000
 58.307      10.000
 58.317      10.000
 58.327      10.000
 58.337      10.000
 58.347      10.000
 58.357      10.002
 58.367      10.005
 58.377      10.015
 58.387      10.040
 58.397      10.100
 58.407      10.236
 58.417      10.528
 58.427      11.117
 58.437      12.234
 58.447      14.227
 58.457      17.563
 58.467      22.802
 58.477      30.496
 58.487      41.042
 58.497      54.463
 58.507      70.240
 58.517      87.197
 58.527     103.573
 58.537     117.285
 58.547     126.350
 58.557     129.346
 58.567     125.794
 58.577     116.266
 58.587     102.244
 58.597      85.739
 58.607      68.821
 58.617      53.204
 58.627      40.019
 58.637      29.729
 58.647      22.264
 58.657      17.211
 58.667      14.011
 58.677      12.109
 58.687      11.050
 58.697      10.494
 58.708      10.220
 58.718      10.093
 58.728      10.037
 58.738      10.014
 58.748      10.005
 58.758      10.000
 58.768      10.000
 58.778      10.000
 58.788      10.000
 58.798      10.000
 58.808      10.000
 58.818      10.000
 58.828      10.000
 58.838      10.000
 58.848      10.000
 58.858      10.000
 58.868      10.000
 58.878      10.000
 58.888      10.000
 58.898      10.000
 58.908      10.000
 58.918      10.000
 58.928      10.000
 58.938      10.000
 58.948      10.000
 58.958      10.000
 58.968      10.000
 58.978      10.000
 58.988      10.000
 58.998      10.000
 59.008      10.000
 59.018      10.000
 59.028      10.000
 59.038      10.000
 59.048      10.000
 59.058      10.000
 59.068      10.000
 59.078      10.000
 59.088      10.000
 59.098      10.000
 59.108      10.000
 59.118      10.000
 59.128      10.000
 59.138      10.000
 59.148      10.000
 59.158      10.000
 59.168      10.000
 59.178      10.000
 59.188      10.000
 59.198      10.000
 59.208      10.000
 59.218      10.000
 59.228      10.000
 59.238      10.000
 59.248      10.000
 59.259      10.000
 59.269      10.000
 59.279      10.000
 59.289      10.000
 59.299      10.000
 59.309      10.000
 59.319      10.000
 59.329      10.000
 59.339      10.000
 59.349      10.000
 59.359      10.000
 59.369      10.000
 59.379      10.000
 59.389      10.000
 59.399      10.000
 59.409      10.000
 59.419      10.000
 59.429      10.000
 59.439      10.000
 59.449      10.000
 59.459      10.000
 59.469      10.000
 59.479      10.000
 59.489      10.000
 59.499      10.000
 59.509      10.000
 59.519      10.000
 59.529      10.000
 59.539      10.000
 59.549      10.000
 59.559      10.000
 59.569      10.000
 59.579      10.000
 59.589      10.000
 59.599      10.000
 59.609      10.000
 59.619      10.000
 59.629      10.000
 59.639      10.000
 59.649      10.000
 59.659      10.000
 59.669      10.000
 59.679      10.000
 59.689      10.000
 59.699      10.000
 59.709      10.000
 59.719      10.000
 59.729      10.000
 59.739      10.000
 59.749      10.000
 59.759      10.000
 59.769      10.000
 59.779      10.000
 59.789      10.000
 59.799      10.000
 59.809      10.000
 59.820      10.000
 59.830      10.000
 59.840      10.000
 59.850      10.000
 59.860      10.000
 59.870      10.000
 59.880      10.000
 59.890      10.000
 59.900      10.000
 59.910      10.000
 59.920      10.000
 59.930      10.000
 59.940      10.000
 59.950      10.000
 59.960      10.000
 59.970      10.000
 59.980      10.000
 59.990      10.000
 60.000      10.000
 60.010      10.000
 60.020      10.000
 60.030      10.000
 60.040      10.000
 60.050      10.000
 60.060      10.000
 60.070      10.000
 60.080      10.000
 60.090      10.000
 60.100      10.000
 60.110      10.000
 60.120      10.000
 60.130      10.000
 60.140      10.000
 60.150      10.000
 60.160      10.000
 60.170      10.000
 60.180      10.000
 60.190      10.000
 60.200      10.000
 60.210      10.000
 60.220      10.000
 60.230      10.000
 60.240      10.000
 60.250      10.000
 60.260      10.000
 60.270      10.000
 60.280      10.000
 60.290      10.000
 60.300      10.000
 60.310      10.000
 60.320      10.000
 60.330      10.000
 60.340      10.000
 60.350      10.014
 60.360      10.039
 60.371      10.105
 60.381      10.268
 60.391      10.646
 60.401      11.473
 60.411      13.176
 60.421      16.478
 60.431      22.499
 60.441      32.816
 60.451      49.386
 60.461      74.309
 60.471     109.321
 60.481     155.090
 60.491     210.480
 60.501     272.022
 60.511     333.943
 60.521     388.786
 60.531     428.941
 60.541     448.274
 60.551     443.682
 60.561     415.912
 60.571     369.336
 60.581     310.898
 60.591     248.326
 60.601     188.549
 60.611     136.525
 60.621      94.807
 60.631      63.757
 60.641      42.237
 60.651      28.285
 60.661      19.810
 60.671      14.978
 60.681      12.390
 60.691      11.085
 60.701      10.466
 60.711      10.189
 60.721      10.073
 60.731      10.026
 60.741      10.009
 60.751      10.000
 60.761      10.000
 60.771      10.000
 60.781      10.000
 60.791      10.000
 60.801      10.000
 60.811      10.000
 60.821      10.000
 60.831      10.000
 60.841      10.000
 60.851      10.000
 60.861      10.000
 60.871      10.000
 60.881      10.000
 60.891      10.000
 60.901      10.000
 60.911      10.000
 60.921      10.000
 60.932      10.000
 60.942      10.000
 60.952      10.000
 60.962      10.000
 60.972      10.000
 60.982      10.000
 60.992      10.000
 61.002      10.000
 61.012      10.000
 61.022      10.000
 61.032      10.000
 61.042      10.000
 61.052      10.000
 61.062      10.000
 61.072      10.000
 61.082      10.000
 61.092      10.000
 61.102      10.000
 61.112      10.000
 61.122      10.000
 61.132      10.000
 61.142      10.000
 61.152      10.000
 61.162      10.000
 61.172      10.000
 61.182      10.000
 61.192      10.000
 61.202      10.000
 61.212      10.000
 61.222      10.000
 61.232      10.000
 61.242      10.000
 61.252      10.000
 61.262      10.000
 61.272      10.000
 61.282      10.000
 61.292      10.000
 61.302      10.000
 61.312      10.000
 61.322      10.000
 61.332      10.000
 61.342      10.000
 61.352      10.000
 61.362      10.000
 61.372      10.000
 61.382      10.000
 61.392      10.000
 61.402      10.000
 61.412      10.000
 61.422      10.000
 61.432      10.000
 61.442      10.000
 61.452      10.000
 61.462      10.000
 61.472      10.000
 61.483      10.000
 61.493      10.000
 61.503      10.000
 61.513      10.000
 61.523      10.000
 61.533      10.000
 61.543      10.000
 61.553      10.000
 61.563      10.000
 61.573      10.000
 61.583      10.000
 61.593      10.000
 61.603      10.000
 61.613      10.000
 61.623      10.000
 61.633      10.000
 61.643      10.000
 61.653      10.000
 61.663      10.000
 61.673      10.000
 61.683      10.000
 61.693      10.000
 61.703      10.000
 61.713      10.000
 61.723      10.000
 61.733      10.000
 61.743      10.000
 61.753      10.000
 61.763      10.000
 61.773      10.000
 61.783      10.000
 61.793      10.000
 61.803      10.000
 61.813      10.000
 61.823      10.000
 61.833      10.000
 61.843      10.000
 61.853      10.000
 61.863      10.000
 61.873      10.000
 61.883      10.000
 61.893      10.000
 61.903      10.000
 61.913      10.000
 61.923      10.000
 61.933      10.000
 61.943      10.000
 61.953      10.000
 61.963      10.000
 61.973      10.000
 61.983      10.000
 61.993      10.000
 62.003      10.000
 62.013      10.000
 62.023      10.000
 62.033      10.000
 62.044      10.000
 62.054      10.000
 62.064      10.000
 62.074      10.000
 62.084      10.000
 62.094      10.000
 62.104      10.000
 62.114      10.000
 62.124      10.000
 62.134      10.000
 62.144      10.000
 62.154      10.000
 62.164      10.000
 62.174      10.000
 62.184      10.000
 62.194      10.000
 62.204      10.000
 62.214      10.000
 62.224      10.000
 62.234      10.000
 62.244      10.000
 62.254      10.000
 62.264      10.000
 62.274      10.000
 62.284      10.000
 62.294      10.004
 62.304      10.013
 62.314      10.036
 62.324      10.094
 62.334      10.233
 62.344      10.548
 62.354      11.218
 62.364      12.560
 62.374      15.091
 62.384      19.575
 62.394      27.036
 62.404      38.673
 62.414      55.639
 62.424      78.712
 62.434     107.850
 62.444     141.802
 62.454     177.926
 62.464     212.383
 62.474     240.690
 62.484     258.724
 62.494     263.652
 62.504     254.678
 62.514     233.246
 62.524     202.666
 62.534     167.262
 62.544     131.424
 62.554      98.679
 62.564      71.259
 62.574      50.027
 62.584      34.738
 62.595      24.459
 62.605      17.995
 62.615      14.181
 62.625      12.068
 62.635      10.968
 62.645      10.428
 62.655      10.179
 62.665      10.071
 62.675      10.027
 62.685      10.009
 62.695      10.000
 62.705      10.000
 62.715      10.000
 62.725      10.000
 62.735      10.000
 62.745      10.000
 62.755      10.000
 62.765      10.000
 62.775      10.000
 62.785      10.000
 62.795      10.000
 62.805      10.000
 62.815      10.000
 62.825      10.000
 62.835      10.000
 62.845      10.000
 62.855      10.000
 62.865      10.000
 62.875      10.000
 62.885      10.000
 62.895      10.000
 62.905      10.000
 62.915      10.000
 62.925      10.000
 62.935      10.000
 62.945      10.000
 62.955      10.000
 62.965      10.000
 62.975      10.000
 62.985      10.000
 62.995      10.000
 63.005      10.000
 63.015      10.000
 63.025      10.000
 63.035      10.000
 63.045      10.000
 63.055      10.000
 63.065      10.000
 63.075      10.000
 63.085      10.000
 63.095      10.000
 63.105      10.000
 63.115      10.000
 63.125      10.000
 63.135      10.000
 63.145      10.000
 63.156      10.000
 63.166      10.000
 63.176      10.000
 63.186      10.000
 63.196      10.000
 63.206      10.000
 63.216      10.000
 63.226      10.000
 63.236      10.000
 63.246      10.000
 63.256      10.000
 63.266      10.000
 63.276      10.000
 63.286      10.000
 63.296      10.000
 63.306      10.000
 63.316      10.000
 63.326      10.000
 63.336      10.000
 63.346      10.000
 63.356      10.000
 63.366      10.000
 63.376      10.000
 63.386      10.000
 63.396      10.000
 63.406      10.000
 63.416      10.000
 63.426      10.000
 63.436      10.000
 63.446      10.000
 63.456      10.000
 63.466      10.000
 63.476      10.000
 63.486      10.000
 63.496      10.000
 63.506      10.000
 63.516      10.000
 63.526      10.000
 63.536      10.000
 63.546      10.000
 63.556      10.000
 63.566      10.000
 63.576      10.000
 63.586      10.000
 63.596      10.000
 63.606      10.000
 63.616      10.000
 63.626      10.000
 63.636      10.000
 63.646      10.000
 63.656      10.000
 63.666      10.000
 63.676      10.000
 63.686      10.000
 63.696      10.000
 63.706      10.000
 63.717      10.000
 63.727      10.000
 63.737      10.000
 63.747      10.000
 63.757      10.000
 63.767      10.000
 63.777      10.000
 63.787      10.000
 63.797      10.000
 63.807      10.000
 63.817      10.000
 63.827      10.000
 63.837      10.000
 63.847      10.000
 63.857      10.000
 63.867      10.000
 63.877      10.000
 63.887      10.000
 63.897      10.000
 63.907      10.000
 63.917      10.000
 63.927      10.000
 63.937      10.000
 63.947      10.000
 63.957      10.000
 63.967      10.000
 63.977      10.000
 63.987      10.000
 63.997      10.000
 64.007      10.000
 64.017      10.000
 64.027      10.000
 64.037      10.000
 64.047      10.000
 64.057      10.000
 64.067      10.000
 64.077      10.000
 64.087      10.000
 64.097      10.000
 64.107      10.000
 64.117      10.000
 64.127      10.000
 64.137      10.000
 64.147      10.000
 64.157      10.000
 64.167      10.000
 64.177      10.000
 64.187      10.000
 64.197      10.000
 64.207      10.000
 64.217      10.024
 64.227      10.068
 64.237      10.181
 64.247      10.453
 64.257      11.074
 64.268      12.408
 64.278      15.106
 64.288      20.239
 64.298      29.424
 64.308      44.852
 64.318      69.150
 64.328     104.955
 64.338     154.182
 64.348     217.081
 64.358     291.320
 64.368     371.490
 64.378     449.365
 64.388     515.113
 64.398     559.293
 64.408     574.957
 64.418     559.619
 64.428     515.756
 64.438     450.204
 64.448     372.411
 64.458     292.216
 64.468     217.872
 64.478     154.825
 64.488     105.439
 64.498      69.490
 64.508      45.074
 64.518      29.551
 64.528      20.313
 64.538      15.145
 64.548      12.428
 64.558      11.084
 64.568      10.458
 64.578      10.183
 64.588      10.069
 64.598      10.025
 64.608      10.000
 64.618      10.000
 64.628      10.000
 64.638      10.000
 64.648      10.000
 64.658      10.000
 64.668      10.000
 64.678      10.000
 64.688      10.000
 64.698      10.000
 64.708      10.000
 64.718      10.000
 64.728      10.000
 64.738      10.000
 64.748      10.000
 64.758      10.000
 64.768      10.000
 64.778      10.000
 64.788      10.000
 64.798      10.000
 64.808      10.000
 64.818      10.000
 64.829      10.000
 64.839      10.000
 64.849      10.000
 64.859      10.000
 64.869      10.000
 64.879      10.000
 64.889      10.000
 64.899      10.000
 64.909      10.000
 64.919      10.000
 64.929      10.000
 64.939      10.000
 64.949      10.000
 64.959      10.000
 64.969      10.000
 64.979      10.000
 64.989      10.000
 64.999      10.000
 65.009      10.000
 65.019      10.000
 65.029      10.000
 65.039      10.000
 65.049      10.000
 65.059      10.000
 65.069      10.000
 65.079      10.000
 65.089      10.000
 65.099      10.000
 65.109      10.000
 65.119      10.000
 65.129      10.000
 65.139      10.000
 65.149      10.000
 65.159      10.000
 65.169      10.000
 65.179      10.000
 65.189      10.000
 65.199      10.000
 65.209      10.000
 65.219      10.000
 65.229      10.000
 65.239      10.000
 65.249      10.000
 65.259      10.000
 65.269      10.000
 65.279      10.000
 65.289      10.000
 65.299      10.000
 65.309      10.000
 65.319      10.000
 65.329      10.000
 65.339      10.000
 65.349      10.000
 65.359      10.000
 65.369      10.000
 65.380      10.000
 65.390      10.000
 65.400      10.000
 65.410      10.000
 65.420      10.000
 65.430      10.000
 65.440      10.000
 65.450      10.000
 65.460      10.000
 65.470      10.000
 65.480      10.000
 65.490      10.000
 65.500      10.000
 65.510      10.000
 65.520      10.000
 65.530      10.000
 65.540      10.000
 65.550      10.000
 65.560      10.000
 65.570      10.000
 65.580      10.000
 65.590      10.000
 65.600      10.000
 65.610      10.000
 65.620      10.000
 65.630      10.000
 65.640      10.000
 65.650      10.000
 65.660      10.000
 65.670      10.000
 65.680      10.000
 65.690      10.000
 65.700      10.000
 65.710      10.000
 65.720      10.000
 65.730      10.000
 65.740      10.000
 65.750      10.000
 65.760      10.000
 65.770      10.000
 65.780      10.000
 65.790      10.000
 65.800      10.000
 65.810      10.000
 65.820      10.000
 65.830      10.000
 65.840      10.000
 65.850      10.000
 65.860      10.000
 65.870      10.000
 65.880      10.000
 65.890      10.000
 65.900      10.000
 65.910      10.000
 65.920      10.000
 65.930      10.000
 65.941      10.000
 65.951      10.000
 65.961      10.000
 65.971      10.000
 65.981      10.000
 65.991      10.000
 66.001      10.000
 66.011      10.000
 66.021      10.000
 66.031      10.000
 66.041      10.000
 66.051      10.000
 66.061      10.000
 66.071      10.000
 66.081      10.000
 66.091      10.000
 66.101      10.007
 66.111      10.018
 66.121      10.049
 66.131      10.124
 66.141      10.296
 66.151      10.669
 66.161      11.430
 66.171      12.890
 66.181      15.525
 66.191      19.991
 66.201      27.091
 66.211      37.652
 66.221      52.317
 66.231      71.257
 66.241      93.872
 66.251     118.622
 66.261     143.062
 66.271     164.178
 66.281     178.975
 66.291     185.171
 66.301     181.756
 66.311     169.293
 66.321     149.738
 66.331     125.949
 66.341     101.002
 66.351      77.557
 66.361      57.438
 66.371      41.507
 66.381      29.794
 66.391      21.762
 66.401      16.611
 66.411      13.513
 66.421      11.767
 66.431      10.840
 66.441      10.378
 66.451      10.161
 66.461      10.065
 66.471      10.025
 66.481      10.009
 66.492      10.003
 66.502      10.000
 66.512      10.000
 66.522      10.000
 66.532      10.000
 66.542      10.000
 66.552      10.000
 66.562      10.000
 66.572      10.000
 66.582      10.000
 66.592      10.000
 66.602      10.000
 66.612      10.000
 66.622      10.000
 66.632      10.000
 66.642      10.000
 66.652      10.000
 66.662      10.000
 66.672      10.000
 66.682      10.000
 66.692      10.000
 66.702      10.000
 66.712      10.000
 66.722      10.000
 66.732      10.000
 66.742      10.000
 66.752      10.000
 66.762      10.000
 66.772      10.000
 66.782      10.000
 66.792      10.000
 66.802      10.000
 66.812      10.000
 66.822      10.000
 66.832      10.000
 66.842      10.000
 66.852      10.000
 66.862      10.000
 66.872      10.000
 66.882      10.000
 66.892      10.000
 66.902      10.000
 66.912      10.000
 66.922      10.000
 66.932      10.000
 66.942      10.000
 66.952      10.000
 66.962      10.000
 66.972      10.000
 66.982      10.000
 66.992      10.000
 67.002      10.000
 67.012      10.000
 67.022      10.000
 67.032      10.000
 67.042      10.000
 67.053      10.000
 67.063      10.000
 67.073      10.000
 67.083      10.000
 67.093      10.000
 67.103      10.000
 67.113      10.000
 67.123      10.000
 67.133      10.000
 67.143      10.000
 67.153      10.000
 67.163      10.000
 67.173      10.000
 67.183      10.000
 67.193      10.000
 67.203      10.000
 67.213      10.000
 67.223      10.000
 67.233      10.000
 67.243      10.000
 67.253      10.000
 67.263      10.000
 67.273      10.000
 67.283      10.000
 67.293      10.000
 67.303      10.000
 67.313      10.000
 67.323      10.000
 67.333      10.000
 67.343      10.000
 67.353      10.000
 67.363      10.000
 67.373      10.000
 67.383      10.000
 67.393      10.000
 67.403      10.000
 67.413      10.000
 67.423      10.000
 67.433      10.000
 67.443      10.000
 67.453      10.000
 67.463      10.000
 67.473      10.000
 67.483      10.000
 67.493      10.000
 67.503      10.000
 67.513      10.000
 67.523      10.000
 67.533      10.000
 67.543      10.000
 67.553      10.000
 67.563      10.000
 67.573      10.000
 67.583      10.000
 67.593      10.000
 67.604      10.000
 67.614      10.000
 67.624      10.000
 67.634      10.000
 67.644      10.000
 67.654      10.000
 67.664      10.000
 67.674      10.000
 67.684      10.000
 67.694      10.000
 67.704      10.000
 67.714      10.000
 67.724      10.000
 67.734      10.000
 67.744      10.000
 67.754      10.000
 67.764      10.000
 67.774      10.000
 67.784      10.000
 67.794      10.000
 67.804      10.000
 67.814      10.000
 67.824      10.000
 67.834      10.000
 67.844      10.000
 67.854      10.000
 67.864      10.000
 67.874      10.000
 67.884      10.000
 67.894      10.000
 67.904      10.000
 67.914      10.000
 67.924      10.000
 67.934      10.000
 67.944      10.000
 67.954      10.007
 67.964      10.021
 67.974      10.059
 67.984      10.152
 67.994      10.373
 68.004      10.865
 68.014      11.897
 68.024      13.934
 68.034      17.716
 68.044      24.315
 68.054      35.129
 68.064      51.709
 68.074      75.480
 68.084     107.235
 68.094     146.574
 68.104     191.446
 68.114     238.014
 68.124     281.025
 68.134     314.714
 68.144     334.046
 68.154     335.954
 68.165     320.127
 68.175     289.097
 68.185     247.544
 68.195     201.254
 68.205     155.649
 68.215     114.916
 68.225      81.484
 68.235      56.069
 68.245      38.083
 68.255      26.192
 68.265      18.831
 68.275      14.556
 68.285      12.223
 68.295      11.026
 68.305      10.448
 68.315      10.185
 68.325      10.072
 68.335      10.027
 68.345      10.009
 68.355      10.000
 68.365      10.000
 68.375      10.000
 68.385      10.000
 68.395      10.000
 68.405      10.000
 68.415      10.000
 68.425      10.000
 68.435      10.000
 68.445      10.000
 68.455      10.000
 68.465      10.000
 68.475      10.000
 68.485      10.000
 68.495      10.000
 68.505      10.000
 68.515      10.000
 68.525      10.000
 68.535      10.000
 68.545      10.000
 68.555      10.000
 68.565      10.000
 68.575      10.000
 68.585      10.000
 68.595      10.000
 68.605      10.000
 68.615      10.000
 68.625      10.000
 68.635      10.000
 68.645      10.000
 68.655      10.000
 68.665      10.000
 68.675      10.000
 68.685      10.000
 68.695      10.000
 68.705      10.000
 68.715      10.000
 68.726      10.000
 68.736      10.000
 68.746      10.000
 68.756      10.000
 68.766      10.000
 68.776      10.000
 68.786      10.000
 68.796      10.000
 68.806      10.000
 68.816      10.000
 68.826      10.000
 68.836      10.000
 68.846      10.000
 68.856      10.000
 68.866      10.000
 68.876      10.000
 68.886      10.000
 68.896      10.000
 68.906      10.000
 68.916      10.000
 68.926      10.000
 68.936      10.000
 68.946      10.000
 68.956      10.000
 68.966      10.000
 68.976      10.000
 68.986      10.000
 68.996      10.000
 69.006      10.000
 69.016      10.000
 69.026      10.000
 69.036      10.000
 69.046      10.000
 69.056      10.000
 69.066      10.000
 69.076      10.000
 69.086      10.000
 69.096      10.000
 69.106      10.000
 69.116      10.000
 69.126      10.000
 69.136      10.000
 69.146      10.000
 69.156      10.000
 69.166      10.000
 69.176      10.000
 69.186      10.000
 69.196      10.000
 69.206      10.000
 69.216      10.000
 69.226      10.000
 69.236      10.000
 69.246      10.000
 69.256      10.000
 69.266      10.000
 69.277      10.000
 69.287      10.000
 69.297      10.000
 69.307      10.000
 69.317      10.000
 69.327      10.000
 69.337      10.000
 69.347      10.000
 69.357      10.000
 69.367      10.000
 69.377      10.000
 69.387      10.000
 69.397      10.000
 69.407      10.000
 69.417      10.000
 69.427      10.000
 69.437      10.000
 69.447      10.000
 69.457      10.000
 69.467      10.000
 69.477      10.000
 69.487      10.000
 69.497      10.000
 69.507      10.000
 69.517      10.000
 69.527      10.000
 69.537      10.000
 69.547      10.000
 69.557      10.000
 69.567      10.000
 69.577      10.000
 69.587      10.000
 69.597      10.000
 69.607      10.000
 69.617      10.000
 69.627      10.000
 69.637      10.000
 69.647      10.000
 69.657      10.000
 69.667      10.000
 69.677      10.000
 69.687      10.000
 69.697      10.000
 69.707      10.000
 69.717      10.000
 69.727      10.000
 69.737      10.000
 69.747      10.000
 69.757      10.000
 69.767      10.000
 69.777      10.000
 69.787      10.003
 69.797      10.009
 69.807      10.026
 69.817      10.066
 69.827      10.163
 69.838      10.381
 69.848      10.838
 69.858      11.745
 69.868      13.437
 69.878      16.404
 69.888      21.287
 69.898      28.815
 69.908      39.668
 69.918      54.249
 69.928      72.423
 69.938      93.295
 69.948     115.147
 69.958     135.522
 69.968     151.736
 69.978     161.381
 69.988     162.932
 69.998     156.137
 70.008     142.085
 70.018     122.923
 70.028     101.315
 70.038      79.845
 70.048      60.532
 70.058      44.580
 70.068      32.383
 70.078      23.699
 70.088      17.933
 70.098      14.345
 70.108      12.251
 70.118      11.103
 70.128      10.511
 70.138      10.224
 70.148      10.093
 70.158      10.036
 70.168      10.014
 70.178      10.005
 70.188      10.000
 70.198      10.000
 70.208      10.000
 70.218      10.000
 70.228      10.000
 70.238      10.000
 70.248      10.000
 70.258      10.000
 70.268      10.000
 70.278      10.000
 70.288      10.000
 70.298      10.000
 70.308      10.000
 70.318      10.000
 70.328      10.000
 70.338      10.000
 70.348      10.000
 70.358      10.000
 70.368      10.000
 70.378      10.000
 70.389      10.000
 70.399      10.000
 70.409      10.000
 70.419      10.000
 70.429      10.000
 70.439      10.000
 70.449      10.000
 70.459      10.000
 70.469      10.000
 70.479      10.000
 70.489      10.000
 70.499      10.000
 70.509      10.000
 70.519      10.000
 70.529      10.000
 70.539      10.000
 70.549      10.000
 70.559      10.000
 70.569      10.000
 70.579      10.000
 70.589      10.000
 70.599      10.000
 70.609      10.000
 70.619      10.000
 70.629      10.000
 70.639      10.000
 70.649      10.000
 70.659      10.000
 70.669      10.000
 70.679      10.000
 70.689      10.000
 70.699      10.000
 70.709      10.000
 70.719      10.000
 70.729      10.000
 70.739      10.000
 70.749      10.000
 70.759      10.000
 70.769      10.000
 70.779      10.000
 70.789      10.000
 70.799      10.000
 70.809      10.000
 70.819      10.000
 70.829      10.000
 70.839      10.000
 70.849      10.000
 70.859      10.000
 70.869      10.000
 70.879      10.000
 70.889      10.000
 70.899      10.000
 70.909      10.000
 70.919      10.000
 70.929      10.000
 70.939      10.000
 70.950      10.000
 70.960      10.000
 70.970      10.000
 70.980      10.000
 70.990      10.000
 71.000      10.000
 71.010      10.000
 71.020      10.000
 71.030      10.000
 71.040      10.000
 71.050      10.000
 71.060      10.000
 71.070      10.000
 71.080      10.000
 71.090      10.000
 71.100      10.000
 71.110      10.000
 71.120      10.000
 71.130      10.000
 71.140      10.000
 71.150      10.000
 71.160      10.000
 71.170      10.000
 71.180      10.000
 71.190      10.000
 71.200      10.000
 71.210      10.000
 71.220      10.000
 71.230      10.000
 71.240      10.000
 71.250      10.000
 71.260      10.000
 71.270      10.000
 71.280      10.000
 71.290      10.000
 71.300      10.000
 71.310      10.000
 71.320      10.000
 71.330      10.000
 71.340      10.000
 71.350      10.000
 71.360      10.000
 71.370      10.000
 71.380      10.000
 71.390      10.000
 71.400      10.000
 71.410      10.000
 71.420      10.000
 71.430      10.000
 71.440      10.000
 71.450      10.000
 71.460      10.000
 71.470      10.000
 71.480      10.000
 71.490      10.000
 71.501      10.000
 71.511      10.000
 71.521      10.000
 71.531      10.000
 71.541      10.000
 71.551      10.000
 71.561      10.000
 71.571      10.000
 71.581      10.000
 71.591      10.000
 71.601      10.006
 71.611      10.018
 71.621      10.050
 71.631      10.129
 71.641      10.316
 71.651      10.735
 71.661      11.616
 71.671      13.358
 71.681      16.603
 71.691      22.281
 71.701      31.603
 71.711      45.946
 71.721      66.592
 71.731      94.244
 71.741     128.619
 71.751     167.980
 71.761     209.014
 71.771     247.136
 71.781     277.268
 71.791     294.925
 71.801     297.308
 71.811     284.030
 71.821     257.219
 71.831     220.960
 71.841     180.275
 71.851     139.968
 71.861     103.851
 71.871      74.102
 71.881      51.413
 71.891      35.307
 71.901      24.628
 71.911      17.997
 71.921      14.136
 71.931      12.023
 71.941      10.936
 71.951      10.410
 71.961      10.170
 71.971      10.066
 71.981      10.025
 71.991      10.009
 72.001      10.000
 72.011      10.000
 72.021      10.000
 72.031      10.000
 72.041      10.000
 72.051      10.000
 72.062      10.000
 72.072      10.000
 72.082      10.000
 72.092      10.000
 72.102      10.000
 72.112      10.000
 72.122      10.000
 72.132      10.000
 72.142      10.000
 72.152      10.000
 72.162      10.000
 72.172      10.000
 72.182      10.000
 72.192      10.000
 72.202      10.000
 72.212      10.000
 72.222      10.000
 72.232      10.000
 72.242      10.000
 72.252      10.000
 72.262      10.000
 72.272      10.000
 72.282      10.000
 72.292      10.000
 72.302      10.000
 72.312      10.000
 72.322      10.000
 72.332      10.000
 72.342      10.000
 72.352      10.000
 72.362      10.000
 72.372      10.000
 72.382      10.000
 72.392      10.000
 72.402      10.000
 72.412      10.000
 72.422      10.000
 72.432      10.000
 72.442      10.000
 72.452      10.000
 72.462      10.000
 72.472      10.000
 72.482      10.000
 72.492      10.000
 72.502      10.000
 72.512      10.000
 72.522      10.000
 72.532      10.000
 72.542      10.000
 72.552      10.000
 72.562      10.000
 72.572      10.000
 72.582      10.000
 72.592      10.000
 72.602      10.000
 72.613      10.000
 72.623      10.000
 72.633      10.000
 72.643      10.000
 72.653      10.000
 72.663      10.000
 72.673      10.000
 72.683      10.000
 72.693      10.000
 72.703      10.000
 72.713      10.000
 72.723      10.000
 72.733      10.000
 72.743      10.000
 72.753      10.000
 72.763      10.000
 72.773      10.000
 72.783      10.000
 72.793      10.000
 72.803      10.000
 72.813      10.000
 72.823      10.000
 72.833      10.000
 72.843      10.000
 72.853      10.000
 72.863      10.000
 72.873      10.000
 72.883      10.000
 72.893      10.000
 72.903      10.000
 72.913      10.000
 72.923      10.000
 72.933      10.000
 72.943      10.000
 72.953      10.000
 72.963      10.000
 72.973      10.000
 72.983      10.000
 72.993      10.000
 73.003      10.000
 73.013      10.000
 73.023      10.000
 73.033      10.000
 73.043      10.000
 73.053      10.000
 73.063      10.000
 73.073      10.000
 73.083      10.000
 73.093      10.000
 73.103      10.000
 73.113      10.000
 73.123      10.000
 73.133      10.000
 73.143      10.000
 73.153      10.000
 73.163      10.000
 73.174      10.000
 73.184      10.000
 73.194      10.000
 73.204      10.000
 73.214      10.000
 73.224      10.000
 73.234      10.000
 73.244      10.000
 73.254      10.000
 73.264      10.000
 73.274      10.000
 73.284      10.000
 73.294      10.000
 73.304      10.000
 73.314      10.000
 73.324      10.000
 73.334      10.000
 73.344      10.000
 73.354      10.000
 73.364      10.000
 73.374      10.000
 73.384      10.000
 73.394      10.001
 73.404      10.003
 73.414      10.007
 73.424      10.018
 73.434      10.045
 73.444      10.106
 73.454      10.235
 73.464      10.491
 73.474      10.971
 73.484      11.816
 73.494      13.214
 73.504      15.378
 73.514      18.513
 73.524      22.744
 73.534      28.046
 73.544      34.171
 73.554      40.623
 73.564      46.697
 73.574      51.596
 73.584      54.596
 73.594      55.225
 73.604      53.381
 73.614      49.355
 73.624      43.773
 73.634      37.414
 73.644      31.048
 73.654      25.285
 73.664      20.500
 73.674      16.822
 73.684      14.193
 73.694      12.437
 73.704      11.340
 73.714      10.697
 73.724      10.343
 73.735      10.160
 73.745      10.070
 73.755      10.029
 73.765      10.012
 73.775      10.004
 73.785      10.002
 73.795      10.000
 73.805      10.000
 73.815      10.000
 73.825      10.000
 73.835      10.000
 73.845      10.000
 73.855      10.000
 73.865      10.000
 73.875      10.000
 73.885      10.000
 73.895      10.000
 73.905      10.000
 73.915      10.000
 73.925      10.000
 73.935      10.000
 73.945      10.000
 73.955      10.000
 73.965      10.000
 73.975      10.000
 73.985      10.000
 73.995      10.000
 74.005      10.000
 74.015      10.000
 74.025      10.000
 74.035      10.000
 74.045      10.000
 74.055      10.000
 74.065      10.000
 74.075      10.000
 74.085      10.000
 74.095      10.000
 74.105      10.000
 74.115      10.000
 74.125      10.000
 74.135      10.000
 74.145      10.000
 74.155      10.000
 74.165      10.000
 74.175      10.000
 74.185      10.000
 74.195      10.000
 74.205      10.000
 74.215      10.000
 74.225      10.000
 74.235      10.000
 74.245      10.000
 74.255      10.000
 74.265      10.000
 74.275      10.000
 74.286      10.000
 74.296      10.000
 74.306      10.000
 74.316      10.000
 74.326      10.000
 74.336      10.000
 74.346      10.000
 74.356      10.000
 74.366      10.000
 74.376      10.000
 74.386      10.000
 74.396      10.000
 74.406      10.000
 74.416      10.000
 74.426      10.000
 74.436      10.000
 74.446      10.000
 74.456      10.000
 74.466      10.000
 74.476      10.000
 74.486      10.000
 74.496      10.000
 74.506      10.000
 74.516      10.000
 74.526      10.000
 74.536      10.000
 74.546      10.000
 74.556      10.000
 74.566      10.000
 74.576      10.000
 74.586      10.000
 74.596      10.000
 74.606      10.000
 74.616      10.000
 74.626      10.000
 74.636      10.000
 74.646      10.000
 74.656      10.000
 74.666      10.000
 74.676      10.000
 74.686      10.000
 74.696      10.000
 74.706      10.000
 74.716      10.000
 74.726      10.000
 74.736      10.000
 74.746      10.000
 74.756      10.000
 74.766      10.000
 74.776      10.000
 74.786      10.000
 74.796      10.000
 74.806      10.000
 74.816      10.000
 74.826      10.000
 74.836      10.000
 74.847      10.000
 74.857      10.000
 74.867      10.000
 74.877      10.000
 74.887      10.000
 74.897      10.000
 74.907      10.000
 74.917      10.000
 74.927      10.000
 74.937      10.000
 74.947      10.000
 74.957      10.000
 74.967      10.000
 74.977      10.000
 74.987      10.000
 74.997      10.000
 75.007      10.000
 75.017      10.000
 75.027      10.000
 75.037      10.000
 75.047      10.000
 75.057      10.000
 75.067      10.000
 75.077      10.000
 75.087      10.000
 75.097      10.000
 75.107      10.000
 75.117      10.000
 75.127      10.000
 75.137      10.000
 75.147      10.000
 75.157      10.000
 75.167      10.000
 75.177      10.016
 75.187      10.044
 75.197      10.118
 75.207      10.299
 75.217      10.716
 75.227      11.624
 75.237      13.484
 75.247      17.069
 75.257      23.576
 75.267      34.647
 75.277      52.324
 75.287      78.745
 75.297     115.617
 75.307     163.483
 75.317     220.970
 75.327     284.293
 75.337     347.320
 75.347     402.377
 75.357     441.717
 75.367     459.291
 75.377     452.272
 75.387     421.768
 75.398     372.631
 75.408     312.072
 75.418     248.006
 75.428     187.379
 75.438     135.040
 75.448      93.374
 75.458      62.583
 75.468      41.368
 75.478      27.700
 75.488      19.447
 75.498      14.769
 75.508      12.276
 75.518      11.028
 75.528      10.439
 75.538      10.177
 75.548      10.068
 75.558      10.025
 75.568      10.008
 75.578      10.000
 75.588      10.000
 75.598      10.000
 75.608      10.000
 75.618      10.000
 75.628      10.000
 75.638      10.000
 75.648      10.000
 75.658      10.000
 75.668      10.000
 75.678      10.000
 75.688      10.000
 75.698      10.000
 75.708      10.000
 75.718      10.000
 75.728      10.000
 75.738      10.000
 75.748      10.000
 75.758      10.000
 75.768      10.000
 75.778      10.000
 75.788      10.000
 75.798      10.000
 75.808      10.000
 75.818      10.000
 75.828      10.000
 75.838      10.000
 75.848      10.000
 75.858      10.000
 75.868      10.000
 75.878      10.000
 75.888      10.000
 75.898      10.000
 75.908      10.000
 75.918      10.000
 75.928      10.000
 75.938      10.000
 75.948      10.000
 75.959      10.000
 75.969      10.000
 75.979      10.000
 75.989      10.000
 75.999      10.000
 76.009      10.000
 76.019      10.000
 76.029      10.000
 76.039      10.000
 76.049      10.000
 76.059      10.000
 76.069      10.000
 76.079      10.000
 76.089      10.000
 76.099      10.000
 76.109      10.000
 76.119      10.000
 76.129      10.000
 76.139      10.000
 76.149      10.000
 76.159      10.000
 76.169      10.000
 76.179      10.000
 76.189      10.000
 76.199      10.000
 76.209      10.000
 76.219      10.000
 76.229      10.000
 76.239      10.000
 76.249      10.000
 76.259      10.000
 76.269      10.000
 76.279      10.000
 76.289      10.000
 76.299      10.000
 76.309      10.000
 76.319      10.000
 76.329      10.000
 76.339      10.000
 76.349      10.000
 76.359      10.000
 76.369      10.000
 76.379      10.000
 76.389      10.000
 76.399      10.000
 76.409      10.000
 76.419      10.000
 76.429      10.000
 76.439      10.000
 76.449      10.000
 76.459      10.000
 76.469      10.000
 76.479      10.000
 76.489      10.000
 76.499      10.000
 76.509      10.000
 76.520      10.000
 76.530      10.000
 76.540      10.000
 76.550      10.000
 76.560      10.000
 76.570      10.000
 76.580      10.000
 76.590      10.000
 76.600      10.000
 76.610      10.000
 76.620      10.000
 76.630      10.000
 76.640      10.000
 76.650      10.000
 76.660      10.000
 76.670      10.000
 76.680      10.000
 76.690      10.000
 76.700      10.000
 76.710      10.000
 76.720      10.000
 76.730      10.000
 76.740      10.000
 76.750      10.000
 76.760      10.000
 76.770      10.000
 76.780      10.000
 76.790      10.000
 76.800      10.000
 76.810      10.000
 76.820      10.000
 76.830      10.000
 76.840      10.000
 76.850      10.000
 76.860      10.000
 76.870      10.000
 76.880      10.000
 76.890      10.000
 76.900      10.000
 76.910      10.000
 76.920      10.000
 76.930      10.000
 76.940      10.004
 76.950      10.011
 76.960      10.031
 76.970      10.078
 76.980      10.188
 76.990      10.427
 77.000      10.918
 77.010      11.867
 77.020      13.591
 77.030      16.537
 77.040      21.249
 77.050      28.311
 77.060      38.191
 77.071      51.055
 77.081      66.551
 77.091      83.681
 77.101     100.804
 77.111     115.849
 77.121     126.708
 77.131     131.717
 77.141     130.069
 77.151     122.026
 77.161     108.866
 77.171      92.530
 77.181      75.165
 77.191      58.668
 77.201      44.381
 77.211      32.973
 77.221      24.519
 77.231      18.680
 77.241      14.908
 77.251      12.625
 77.261      11.328
 77.271      10.636
 77.281      10.287
 77.291      10.123
 77.301      10.050
 77.311      10.019
 77.321      10.007
 77.331      10.002
 77.341      10.000
 77.351      10.000
 77.361      10.000
 77.371      10.000
 77.381      10.000
 77.391      10.000
 77.401      10.000
 77.411      10.000
 77.421      10.000
 77.431      10.000
 77.441      10.000
 77.451      10.000
 77.461      10.000
 77.471      10.000
 77.481      10.000
 77.491      10.000
 77.501      10.000
 77.511      10.000
 77.521      10.000
 77.531      10.000
 77.541      10.000
 77.551      10.000
 77.561      10.000
 77.571      10.000
 77.581      10.000
 77.591      10.000
 77.601      10.000
 77.611      10.000
 77.621      10.000
 77.632      10.000
 77.642      10.000
 77.652      10.000
 77.662      10.000
 77.672      10.000
 77.682      10.000
 77.692      10.000
 77.702      10.000
 77.712      10.000
 77.722      10.000
 77.732      10.000
 77.742      10.000
 77.752      10.000
 77.762      10.000
 77.772      10.000
 77.782      10.000
 77.792      10.000
 77.802      10.000
 77.812      10.000
 77.822      10.000
 77.832      10.000
 77.842      10.000
 77.852      10.000
 77.862      10.000
 77.872      10.000
 77.882      10.000
 77.892      10.000
 77.902      10.000
 77.912      10.000
 77.922      10.000
 77.932      10.000
 77.942      10.000
 77.952      10.000
 77.962      10.000
 77.972      10.000
 77.982      10.000
 77.992      10.000
 78.002      10.000
 78.012      10.000
 78.022      10.000
 78.032      10.000
 78.042      10.000
 78.052      10.000
 78.062      10.000
 78.072      10.000
 78.082      10.000
 78.092      10.000
 78.102      10.000
 78.112      10.000
 78.122      10.000
 78.132      10.000
 78.142      10.000
 78.152      10.000
 78.162      10.000
 78.172      10.000
 78.183      10.000
 78.193      10.000
 78.203      10.000
 78.213      10.000
 78.223      10.000
 78.233      10.000
 78.243      10.000
 78.253      10.000
 78.263      10.000
 78.273      10.000
 78.283      10.000
 78.293      10.000
 78.303      10.000
 78.313      10.000
 78.323      10.000
 78.333      10.000
 78.343      10.000
 78.353      10.000
 78.363      10.000
 78.373      10.000
 78.383      10.000
 78.393      10.000
 78.403      10.000
 78.413      10.000
 78.423      10.000
 78.433      10.000
 78.443      10.000
 78.453      10.000
 78.463      10.000
 78.473      10.000
 78.483      10.000
 78.493      10.000
 78.503      10.000
 78.513      10.000
 78.523      10.000
 78.533      10.000
 78.543      10.000
 78.553      10.000
 78.563      10.000
 78.573      10.000
 78.583      10.000
 78.593      10.000
 78.603      10.000
 78.613      10.000
 78.623      10.000
 78.633      10.000
 78.643      10.000
 78.653      10.000
 78.663      10.000
 78.673      10.000
 78.683      10.000
 78.693      10.019
 78.703      10.053
 78.713      10.141
 78.723      10.354
 78.733      10.841
 78.744      11.892
 78.754      14.024
 78.764      18.096
 78.774      25.407
 78.784      37.732
 78.794      57.234
 78.804      86.064
 78.814     125.860
 78.824     176.926
 78.834     237.483
 78.844     303.228
 78.854     367.517
 78.864     422.308
 78.874     459.760
 78.884     474.059
 78.894     462.897
 78.904     428.079
 78.914     375.050
 78.924     311.444
 78.934     245.478
 78.944     183.991
 78.954     131.601
 78.964      90.386
 78.974      60.264
 78.984      39.728
 78.994      26.631
 79.004      18.800
 79.014      14.405
 79.024      12.085
 79.034      10.934
 79.044      10.395
 79.054      10.158
 79.064      10.060
 79.074      10.022
 79.084      10.007
 79.094      10.000
 79.104      10.000
 79.114      10.000
 79.124      10.000
 79.134      10.000
 79.144      10.000
 79.154      10.000
 79.164      10.000
 79.174      10.000
 79.184      10.000
 79.194      10.000
 79.204      10.000
 79.214      10.000
 79.224      10.000
 79.234      10.000
 79.244      10.000
 79.254      10.000
 79.264      10.000
 79.274      10.000
 79.284      10.000
 79.295      10.000
 79.305      10.000
 79.315      10.000
 79.325      10.000
 79.335      10.000
 79.345      10.000
 79.355      10.000
 79.365      10.000
 79.375      10.000
 79.385      10.000
 79.395      10.000
 79.405      10.000
 79.415      10.000
 79.425      10.000
 79.435      10.000
 79.445      10.000
 79.455      10.000
 79.465      10.000
 79.475      10.000
 79.485      10.000
 79.495      10.000
 79.505      10.000
 79.515      10.000
 79.525      10.000
 79.535      10.000
 79.545      10.000
 79.555      10.000
 79.565      10.000
 79.575      10.000
 79.585      10.000
 79.595      10.000
 79.605      10.000
 79.615      10.000
 79.625      10.000
 79.635      10.000
 79.645      10.000
 79.655      10.000
 79.665      10.000
 79.675      10.000
 79.685      10.000
 79.695      10.000
 79.705      10.000
 79.715      10.000
 79.725      10.000
 79.735      10.000
 79.745      10.000
 79.755      10.000
 79.765      10.000
 79.775      10.000
 79.785      10.000
 79.795      10.000
 79.805      10.000
 79.815      10.000
 79.825      10.000
 79.835      10.000
 79.845      10.000
 79.856      10.000
 79.866      10.000
 79.876      10.000
 79.886      10.000
 79.896      10.000
 79.906      10.000
 79.916      10.000
 79.926      10.000
 79.936      10.000
 79.946      10.000
 79.956      10.000
 79.966      10.000
 79.976      10.000
 79.986      10.000
 79.996      10.000
 80.006      10.000
 80.016      10.000
 80.026      10.000
 80.036      10.000
 80.046      10.000
 80.056      10.000
 80.066      10.000
 80.076      10.000
 80.086      10.000
 80.096      10.000
 80.106      10.000
 80.116      10.000
 80.126      10.000
 80.136      10.000
 80.146      10.000
 80.156      10.000
 80.166      10.000
 80.176      10.000
 80.186      10.000
 80.196      10.000
 80.206      10.000
 80.216      10.000
 80.226      10.000
 80.236      10.000
 80.246      10.000
 80.256      10.000
 80.266      10.000
 80.276      10.000
 80.286      10.000
 80.296      10.000
 80.306      10.000
 80.316      10.000
 80.326      10.000
 80.336      10.000
 80.346      10.000
 80.356      10.000
 80.366      10.000
 80.376      10.000
 80.386      10.000
 80.396      10.000
 80.407      10.000
 80.417      10.000
 80.427      10.004
 80.437      10.012
 80.447      10.032
 80.457      10.084
 80.467      10.208
 80.477      10.488
 80.487      11.083
 80.497      12.274
 80.507      14.515
 80.517      18.481
 80.527      25.068
 80.537      35.322
 80.547      50.251
 80.557      70.518
 80.567      96.085
 80.577     125.794
 80.587     157.324
 80.597     187.294
 80.607     211.814
 80.617     227.291
 80.627     231.291
 80.637     223.168
 80.647     204.228
 80.657     177.393
 80.667     146.457
 80.677     115.218
 80.687      86.719
 80.697      62.923
 80.707      44.532
 80.717      31.312
 80.727      22.441
 80.737      16.870
 80.747      13.588
 80.757      11.773
 80.767      10.828
 80.777      10.366
 80.787      10.153
 80.797      10.061
 80.807      10.023
 80.817      10.008
 80.827      10.000
 80.837      10.000
 80.847      10.000
 80.857      10.000
 80.867      10.000
 80.877      10.000
 80.887      10.000
 80.897      10.000
 80.907      10.000
 80.917      10.000
 80.927      10.000
 80.937      10.000
 80.947      10.000
 80.957      10.000
 80.968      10.000
 80.978      10.000
 80.988      10.000
 80.998      10.000
 81.008      10.000
 81.018      10.000
 81.028      10.000
 81.038      10.000
 81.048      10.000
 81.058      10.000
 81.068      10.000
 81.078      10.000
 81.088      10.000
 81.098      10.000
 81.108      10.000
 81.118      10.000
 81.128      10.000
 81.138      10.000
 81.148      10.000
 81.158      10.000
 81.168      10.000
 81.178      10.000
 81.188      10.000
 81.198      10.000
 81.208      10.000
 81.218      10.000
 81.228      10.000
 81.238      10.000
 81.248      10.000
 81.258      10.000
 81.268      10.000
 81.278      10.000
 81.288      10.000
 81.298      10.000
 81.308      10.000
 81.318      10.000
 81.328      10.000
 81.338      10.000
 81.348      10.000
 81.358      10.000
 81.368      10.000
 81.378      10.000
 81.388      10.000
 81.398      10.000
 81.408      10.000
 81.418      10.000
 81.428      10.000
 81.438      10.000
 81.448      10.000
 81.458      10.000
 81.468      10.000
 81.478      10.000
 81.488      10.000
 81.498      10.000
 81.508      10.000
 81.519      10.000
 81.529      10.000
 81.539      10.000
 81.549      10.000
 81.559      10.000
 81.569      10.000
 81.579      10.000
 81.589      10.000
 81.599      10.000
 81.609      10.000
 81.619      10.000
 81.629      10.000
 81.639      10.000
 81.649      10.000
 81.659      10.000
 81.669      10.000
 81.679      10.000
 81.689      10.000
 81.699      10.000
 81.709      10.000
 81.719      10.000
 81.729      10.000
 81.739      10.000
 81.749      10.000
 81.759      10.000
 81.769      10.000
 81.779      10.000
 81.789      10.000
 81.799      10.000
 81.809      10.000
 81.819      10.000
 81.829      10.000
 81.839      10.000
 81.849      10.000
 81.859      10.000
 81.869      10.000
 81.879      10.000
 81.889      10.000
 81.899      10.000
 81.909      10.000
 81.919      10.000
 81.929      10.000
 81.939      10.000
 81.949      10.000
 81.959      10.000
 81.969      10.000
 81.979      10.000
 81.989      10.000
 81.999      10.000
 82.009      10.000
 82.019      10.000
 82.029      10.000
 82.039      10.000
 82.049      10.000
 82.059      10.000
 82.069      10.000
 82.080      10.000
 82.090      10.000
 82.100      10.000
 82.110      10.000
 82.120      10.000
 82.130      10.000
 82.140      10.000
 82.150      10.000
 82.160      10.002
 82.170      10.006
 82.180      10.017
 82.190      10.044
 82.200      10.109
 82.210      10.254
 82.220      10.561
 82.230      11.171
 82.240      12.312
 82.250      14.318
 82.260      17.627
 82.270      22.744
 82.280      30.142
 82.290      40.111
 82.300      52.578
 82.310      66.947
 82.320      82.043
 82.330      96.219
 82.340     107.583
 82.350     114.466
 82.360     115.783
 82.370     111.318
 82.380     101.790
 82.390      88.657
 82.400      73.754
 82.410      58.878
 82.420      45.445
 82.430      34.313
 82.440      25.774
 82.450      19.680
 82.460      15.617
 82.470      13.084
 82.480      11.601
 82.490      10.787
 82.500      10.365
 82.510      10.161
 82.520      10.067
 82.530      10.026
 82.540      10.010
 82.550      10.003
 82.560      10.000
 82.570      10.000
 82.580      10.000
 82.590      10.000
 82.600      10.000
 82.610      10.000
 82.620      10.000
 82.631      10.000
 82.641      10.000
 82.651      10.000
 82.661      10.000
 82.671      10.000
 82.681      10.000
 82.691      10.000
 82.701      10.000
 82.711      10.000
 82.721      10.000
 82.731      10.000
 82.741      10.000
 82.751      10.000
 82.761      10.000
 82.771      10.000
 82.781      10.000
 82.791      10.000
 82.801      10.000
 82.811      10.000
 82.821      10.000
 82.831      10.000
 82.841      10.000
 82.851      10.000
 82.861      10.000
 82.871      10.000
 82.881      10.000
 82.891      10.000
 82.901      10.000
 82.911      10.000
 82.921      10.000
 82.931      10.000
 82.941      10.000
 82.951      10.000
 82.961      10.000
 82.971      10.000
 82.981      10.000
 82.991      10.000
 83.001      10.000
 83.011      10.000
 83.021      10.000
 83.031      10.000
 83.041      10.000
 83.051      10.000
 83.061      10.000
 83.071      10.000
 83.081      10.000
 83.091      10.000
 83.101      10.000
 83.111      10.000
 83.121      10.000
 83.131      10.000
 83.141      10.000
 83.151      10.000
 83.161      10.000
 83.171      10.000
 83.181      10.000
 83.192      10.000
 83.202      10.000
 83.212      10.000
 83.222      10.000
 83.232      10.000
 83.242      10.000
 83.252      10.000
 83.262      10.000
 83.272      10.000
 83.282      10.000
 83.292      10.000
 83.302      10.000
 83.312      10.000
 83.322      10.000
 83.332      10.000
 83.342      10.000
 83.352      10.000
 83.362      10.000
 83.372      10.000
 83.382      10.000
 83.392      10.000
 83.402      10.000
 83.412      10.000
 83.422      10.000
 83.432      10.000
 83.442      10.000
 83.452      10.000
 83.462      10.000
 83.472      10.000
 83.482      10.000
 83.492      10.000
 83.502      10.000
 83.512      10.000
 83.522      10.000
 83.532      10.000
 83.542      10.000
 83.552      10.000
 83.562      10.000
 83.572      10.000
 83.582      10.000
 83.592      10.000
 83.602      10.000
 83.612      10.000
 83.622      10.000
 83.632      10.000
 83.642      10.000
 83.652      10.000
 83.662      10.000
 83.672      10.000
 83.682      10.000
 83.692      10.000
 83.702      10.000
 83.712      10.000
 83.722      10.000
 83.732      10.000
 83.743      10.000
 83.753      10.000
 83.763      10.000
 83.773      10.000
 83.783      10.000
 83.793      10.000
 83.803      10.000
 83.813      10.000
 83.823      10.000
 83.833      10.000
 83.843      10.000
 83.853      10.000
 83.863      10.000
 83.873      10.000
 83.883      10.000
 83.893      10.000
 83.903      10.000
 83.913      10.000
 83.923      10.000
 83.933      10.000
 83.943      10.000
 83.953      10.000
 83.963      10.000
 83.973      10.000
 83.983      10.000
 83.993      10.000
 84.003      10.000
 84.013      10.000
 84.023      10.000
 84.033      10.000
 84.043      10.000
 84.053      10.000
 84.063      10.000
 84.073      10.000
 84.083      10.000
 84.093      10.000
 84.103      10.000
 84.113      10.000
 84.123      10.000
 84.133      10.000
 84.143      10.000
 84.153      10.000
 84.163      10.000
 84.173      10.000
 84.183      10.000
 84.193      10.000
 84.203      10.000
 84.213      10.000
 84.223      10.000
 84.233      10.000
 84.243      10.000
 84.253      10.000
 84.263      10.000
 84.273      10.000
 84.283      10.000
 84.293      10.000
 84.304      10.000
 84.314      10.000
 84.324      10.000
 84.334      10.000
 84.344      10.000
 84.354      10.000
 84.364      10.000
 84.374      10.000
 84.384      10.000
 84.394      10.000
 84.404      10.000
 84.414      10.000
 84.424      10.000
 84.434      10.000
 84.444      10.000
 84.454      10.000
 84.464      10.000
 84.474      10.000
 84.484      10.000
 84.494      10.000
 84.504      10.000
 84.514      10.000
 84.524      10.000
 84.534      10.000
 84.544      10.000
 84.554      10.000
 84.564      10.000
 84.574      10.000
 84.584      10.000
 84.594      10.000
 84.604      10.000
 84.614      10.000
 84.624      10.000
 84.634      10.000
 84.644      10.000
 84.654      10.000
 84.664      10.000
 84.674      10.000
 84.684      10.000
 84.694      10.000
 84.704      10.000
 84.714      10.000
 84.724      10.000
 84.734      10.000
 84.744      10.000
 84.754      10.000
 84.764      10.000
 84.774      10.000
 84.784      10.000
 84.794      10.000
 84.804      10.000
 84.814      10.000
 84.824      10.000
 84.834      10.000
 84.844      10.000
 84.854      10.000
 84.865      10.000
 84.875      10.000
 84.885      10.000
 84.895      10.000
 84.905      10.000
 84.915      10.000
 84.925      10.000
 84.935      10.000
 84.945      10.000
 84.955      10.000
 84.965      10.000
 84.975      10.000
 84.985      10.000
 84.995      10.000
 85.005      10.000
 85.015      10.000
 85.025      10.000
 85.035      10.000
 85.045      10.000
 85.055      10.000
 85.065      10.000
 85.075      10.000
 85.085      10.000
 85.095      10.000
 85.105      10.000
 85.115      10.000
 85.125      10.000
 85.135      10.000
 85.145      10.000
 85.155      10.000
 85.165      10.000
 85.175      10.000
 85.185      10.000
 85.195      10.000
 85.205      10.000
 85.215      10.000
 85.225      10.000
 85.235      10.000
 85.245      10.000
 85.255      10.000
 85.265      10.000
 85.275      10.000
 85.285      10.000
 85.295      10.000
 85.305      10.000
 85.315      10.000
 85.325      10.000
 85.335      10.000
 85.345      10.000
 85.355      10.000
 85.365      10.000
 85.375      10.000
 85.385      10.000
 85.395      10.000
 85.405      10.000
 85.416      10.000
 85.426      10.000
 85.436      10.000
 85.446      10.000
 85.456      10.000
 85.466      10.000
 85.476      10.000
 85.486      10.000
 85.496      10.000
 85.506      10.000
 85.516      10.000
 85.526      10.000
 85.536      10.000
 85.546      10.000
 85.556      10.000
 85.566      10.000
 85.576      10.000
 85.586      10.000
 85.596      10.000
 85.606      10.009
 85.616      10.026
 85.626      10.072
 85.636      10.186
 85.646      10.455
 85.656      11.053
 85.666      12.306
 85.676      14.777
 85.686      19.360
 85.696      27.345
 85.706      40.404
 85.716      60.409
 85.726      89.055
 85.736     127.269
 85.746     174.578
 85.756     228.411
 85.766     284.164
 85.776     335.522
 85.786     375.580
 85.796     398.347
 85.806     400.203
 85.816     380.847
 85.826     343.375
 85.836     293.468
 85.846     237.987
 85.856     183.440
 85.866     134.768
 85.876      94.917
 85.886      64.666
 85.896      43.287
 85.906      29.172
 85.916      20.444
 85.926      15.382
 85.936      12.623
 85.946      11.209
 85.956      10.527
 85.966      10.218
 85.977      10.085
 85.987      10.031
 85.997      10.011
 86.007      10.000
 86.017      10.000
 86.027      10.000
 86.037      10.000
 86.047      10.000
 86.057      10.000
 86.067      10.000
 86.077      10.000
 86.087      10.000
 86.097      10.000
 86.107      10.000
 86.117      10.000
 86.127      10.000
 86.137      10.000
 86.147      10.000
 86.157      10.000
 86.167      10.000
 86.177      10.000
 86.187      10.000
 86.197      10.000
 86.207      10.000
 86.217      10.000
 86.227      10.000
 86.237      10.000
 86.247      10.000
 86.257      10.000
 86.267      10.000
 86.277      10.000
 86.287      10.000
 86.297      10.000
 86.307      10.000
 86.317      10.000
 86.327      10.000
 86.337      10.000
 86.347      10.000
 86.357      10.000
 86.367      10.000
 86.377      10.000
 86.387      10.000
 86.397      10.000
 86.407      10.000
 86.417      10.000
 86.427      10.000
 86.437      10.000
 86.447      10.000
 86.457      10.000
 86.467      10.000
 86.477      10.000
 86.487      10.000
 86.497      10.000
 86.507      10.000
 86.517      10.000
 86.528      10.000
 86.538      10.000
 86.548      10.000
 86.558      10.000
 86.568      10.000
 86.578      10.000
 86.588      10.000
 86.598      10.000
 86.608      10.000
 86.618      10.000
 86.628      10.000
 86.638      10.000
 86.648      10.000
 86.658      10.000
 86.668      10.000
 86.678      10.000
 86.688      10.000
 86.698      10.000
 86.708      10.000
 86.718      10.000
 86.728      10.000
 86.738      10.000
 86.748      10.000
 86.758      10.000
 86.768      10.000
 86.778      10.000
 86.788      10.000
 86.798      10.000
 86.808      10.000
 86.818      10.000
 86.828      10.000
 86.838      10.000
 86.848      10.000
 86.858      10.000
 86.868      10.000
 86.878      10.000
 86.888      10.000
 86.898      10.000
 86.908      10.000
 86.918      10.000
 86.928      10.000
 86.938      10.000
 86.948      10.000
 86.958      10.000
 86.968      10.000
 86.978      10.000
 86.988      10.000
 86.998      10.000
 87.008      10.000
 87.018      10.000
 87.028      10.000
 87.038      10.000
 87.048      10.000
 87.058      10.000
 87.068      10.000
 87.078      10.000
 87.089      10.000
 87.099      10.000
 87.109      10.000
 87.119      10.000
 87.129      10.000
 87.139      10.000
 87.149      10.000
 87.159      10.000
 87.169      10.000
 87.179      10.000
 87.189      10.000
 87.199      10.000
 87.209      10.000
 87.219      10.000
 87.229      10.000
 87.239      10.000
 87.249      10.000
 87.259      10.000
 87.269      10.000
 87.279      10.000
 87.289      10.000
 87.299      10.000
 87.309      10.000
 87.319      10.000
 87.329      10.001
 87.339      10.003
 87.349      10.009
 87.359      10.021
 87.369      10.050
 87.379      10.112
 87.389      10.236
 87.399      10.469
 87.409      10.883
 87.419      11.572
 87.429      12.649
 87.439      14.221
 87.449      16.361
 87.459      19.069
 87.469      22.228
 87.479      25.596
 87.489      28.815
 87.499      31.470
 87.509      33.174
 87.519      33.658
 87.529      32.845
 87.539      30.865
 87.549      28.026
 87.559      24.730
 87.569      21.385
 87.579      18.324
 87.589      15.756
 87.599      13.765
 87.609      12.329
 87.619      11.363
 87.629      10.755
 87.640      10.395
 87.650      10.196
 87.660      10.092
 87.670      10.041
 87.680      10.017
 87.690      10.007
 87.700      10.003
 87.710      10.001
 87.720      10.000
 87.730      10.000
 87.740      10.000
 87.750      10.000
 87.760      10.000
 87.770      10.000
 87.780      10.000
 87.790      10.000
 87.800      10.000
 87.810      10.000
 87.820      10.000
 87.830      10.000
 87.840      10.000
 87.850      10.000
 87.860      10.000
 87.870      10.000
 87.880      10.000
 87.890      10.000
 87.900      10.000
 87.910      10.000
 87.920      10.000
 87.930      10.000
 87.940      10.000
 87.950      10.000
 87.960      10.000
 87.970      10.000
 87.980      10.000
 87.990      10.000
 88.000      10.000
 88.010      10.000
 88.020      10.000
 88.030      10.000
 88.040      10.000
 88.050      10.000
 88.060      10.000
 88.070      10.000
 88.080      10.000
 88.090      10.000
 88.100      10.000
 88.110      10.000
 88.120      10.000
 88.130      10.000
 88.140      10.000
 88.150      10.000
 88.160      10.000
 88.170      10.000
 88.180      10.000
 88.190      10.000
 88.201      10.000
 88.211      10.000
 88.221      10.000
 88.231      10.000
 88.241      10.000
 88.251      10.000
 88.261      10.000
 88.271      10.000
 88.281      10.000
 88.291      10.000
 88.301      10.000
 88.311      10.000
 88.321      10.000
 88.331      10.000
 88.341      10.000
 88.351      10.000
 88.361      10.000
 88.371      10.000
 88.381      10.000
 88.391      10.000
 88.401      10.000
 88.411      10.000
 88.421      10.000
 88.431      10.000
 88.441      10.000
 88.451      10.000
 88.461      10.000
 88.471      10.000
 88.481      10.000
 88.491      10.000
 88.501      10.000
 88.511      10.000
 88.521      10.000
 88.531      10.000
 88.541      10.000
 88.551      10.000
 88.561      10.000
 88.571      10.000
 88.581      10.000
 88.591      10.000
 88.601      10.000
 88.611      10.000
 88.621      10.000
 88.631      10.000
 88.641      10.000
 88.651      10.000
 88.661      10.000
 88.671      10.000
 88.681      10.000
 88.691      10.000
 88.701      10.000
 88.711      10.000
 88.721      10.000
 88.731      10.000
 88.741      10.000
 88.751      10.000
 88.762      10.000
 88.772      10.000
 88.782      10.000
 88.792      10.000
 88.802      10.000
 88.812      10.000
 88.822      10.000
 88.832      10.000
 88.842      10.000
 88.852      10.000
 88.862      10.000
 88.872      10.000
 88.882      10.000
 88.892      10.000
 88.902      10.000
 88.912      10.000
 88.922      10.000
 88.932      10.000
 88.942      10.000
 88.952      10.000
 88.962      10.000
 88.972      10.000
 88.982      10.000
 88.992      10.000
 89.002      10.000
 89.012      10.000
 89.022      10.000
 89.032      10.006
 89.042      10.017
 89.052      10.048
 89.062      10.126
 89.072      10.313
 89.082      10.740
 89.092      11.651
 89.102      13.488
 89.112      16.967
 89.122      23.165
 89.132      33.530
 89.142      49.779
 89.152      73.631
 89.162     106.239
 89.172     147.678
 89.182     196.301
 89.192     248.451
 89.202     298.680
 89.212     340.573
 89.222     368.057
 89.232     376.835
 89.242     365.487
 89.252     335.844
 89.262     292.507
 89.272     241.677
 89.282     189.671
 89.292     141.820
 89.302     101.478
 89.313      70.046
 89.323      47.281
 89.333      31.894
 89.343      22.162
 89.353      16.390
 89.363      13.176
 89.373      11.493
 89.383      10.664
 89.393      10.279
 89.403      10.111
 89.413      10.042
 89.423      10.015
 89.433      10.000
 89.443      10.000
 89.453      10.000
 89.463      10.000
 89.473      10.000
 89.483      10.000
 89.493      10.000
 89.503      10.000
 89.513      10.000
 89.523      10.000
 89.533      10.000
 89.543      10.000
 89.553      10.000
 89.563      10.000
 89.573      10.000
 89.583      10.000
 89.593      10.000
 89.603      10.000
 89.613      10.000
 89.623      10.000
 89.633      10.000
 89.643      10.000
 89.653      10.000
 89.663      10.000
 89.673      10.000
 89.683      10.000
 89.693      10.000
 89.703      10.000
 89.713      10.000
 89.723      10.000
 89.733      10.000
 89.743      10.000
 89.753      10.000
 89.763      10.000
 89.773      10.000
 89.783      10.000
 89.793      10.000
 89.803      10.000
 89.813      10.000
 89.823      10.000
 89.833      10.000
 89.843      10.000
 89.853      10.000
 89.863      10.000
 89.874      10.000
 89.884      10.000
 89.894      10.000
 89.904      10.000
 89.914      10.000
 89.924      10.000
 89.934      10.000
 89.944      10.000
 89.954      10.000
 89.964      10.000
 89.974      10.000
 89.984      10.000
 89.994      10.000
 90.004      10.000
