2theta /stopnie	natê¿enie/jednostki umowne
 10.000      10.000
 10.010      10.000
 10.020      10.000
 10.030      10.000
 10.040      10.000
 10.050      10.000
 10.060      10.000
 10.070      10.000
 10.080      10.000
 10.090      10.000
 10.100      10.000
 10.110      10.000
 10.120      10.000
 10.130      10.000
 10.140      10.000
 10.150      10.000
 10.160      10.000
 10.170      10.000
 10.180      10.000
 10.190      10.000
 10.200      10.000
 10.210      10.000
 10.220      10.000
 10.230      10.000
 10.240      10.000
 10.250      10.000
 10.260      10.000
 10.270      10.000
 10.281      10.000
 10.291      10.000
 10.301      10.000
 10.311      10.000
 10.321      10.000
 10.331      10.000
 10.341      10.000
 10.351      10.000
 10.361      10.000
 10.371      10.000
 10.381      10.000
 10.391      10.000
 10.401      10.000
 10.411      10.000
 10.421      10.000
 10.431      10.000
 10.441      10.000
 10.451      10.000
 10.461      10.000
 10.471      10.000
 10.481      10.000
 10.491      10.000
 10.501      10.000
 10.511      10.000
 10.521      10.000
 10.531      10.000
 10.541      10.000
 10.551      10.000
 10.561      10.000
 10.571      10.000
 10.581      10.000
 10.591      10.000
 10.601      10.000
 10.611      10.000
 10.621      10.000
 10.631      10.000
 10.641      10.000
 10.651      10.000
 10.661      10.000
 10.671      10.000
 10.681      10.000
 10.691      10.000
 10.701      10.000
 10.711      10.000
 10.721      10.000
 10.731      10.000
 10.741      10.000
 10.751      10.000
 10.761      10.000
 10.771      10.000
 10.781      10.000
 10.791      10.000
 10.801      10.000
 10.811      10.000
 10.821      10.000
 10.831      10.000
 10.842      10.000
 10.852      10.000
 10.862      10.000
 10.872      10.000
 10.882      10.000
 10.892      10.000
 10.902      10.000
 10.912      10.000
 10.922      10.000
 10.932      10.000
 10.942      10.000
 10.952      10.000
 10.962      10.000
 10.972      10.000
 10.982      10.000
 10.992      10.000
 11.002      10.000
 11.012      10.000
 11.022      10.000
 11.032      10.000
 11.042      10.000
 11.052      10.000
 11.062      10.000
 11.072      10.000
 11.082      10.000
 11.092      10.000
 11.102      10.000
 11.112      10.000
 11.122      10.000
 11.132      10.000
 11.142      10.000
 11.152      10.000
 11.162      10.000
 11.172      10.000
 11.182      10.000
 11.192      10.000
 11.202      10.000
 11.212      10.000
 11.222      10.000
 11.232      10.000
 11.242      10.000
 11.252      10.000
 11.262      10.000
 11.272      10.000
 11.282      10.000
 11.292      10.000
 11.302      10.000
 11.312      10.000
 11.322      10.000
 11.332      10.000
 11.342      10.000
 11.352      10.000
 11.362      10.000
 11.372      10.000
 11.382      10.000
 11.393      10.000
 11.403      10.000
 11.413      10.000
 11.423      10.000
 11.433      10.000
 11.443      10.000
 11.453      10.000
 11.463      10.000
 11.473      10.000
 11.483      10.000
 11.493      10.000
 11.503      10.000
 11.513      10.000
 11.523      10.000
 11.533      10.000
 11.543      10.000
 11.553      10.000
 11.563      10.000
 11.573      10.000
 11.583      10.000
 11.593      10.000
 11.603      10.000
 11.613      10.000
 11.623      10.000
 11.633      10.000
 11.643      10.000
 11.653      10.000
 11.663      10.000
 11.673      10.000
 11.683      10.000
 11.693      10.000
 11.703      10.000
 11.713      10.000
 11.723      10.000
 11.733      10.000
 11.743      10.000
 11.753      10.000
 11.763      10.000
 11.773      10.000
 11.783      10.000
 11.793      10.000
 11.803      10.000
 11.813      10.000
 11.823      10.000
 11.833      10.000
 11.843      10.000
 11.853      10.000
 11.863      10.000
 11.873      10.000
 11.883      10.000
 11.893      10.000
 11.903      10.000
 11.913      10.000
 11.923      10.000
 11.933      10.000
 11.943      10.000
 11.954      10.000
 11.964      10.000
 11.974      10.000
 11.984      10.000
 11.994      10.000
 12.004      10.000
 12.014      10.000
 12.024      10.000
 12.034      10.000
 12.044      10.000
 12.054      10.000
 12.064      10.000
 12.074      10.000
 12.084      10.000
 12.094      10.000
 12.104      10.000
 12.114      10.000
 12.124      10.000
 12.134      10.000
 12.144      10.000
 12.154      10.000
 12.164      10.000
 12.174      10.000
 12.184      10.000
 12.194      10.000
 12.204      10.000
 12.214      10.000
 12.224      10.000
 12.234      10.000
 12.244      10.000
 12.254      10.000
 12.264      10.000
 12.274      10.000
 12.284      10.000
 12.294      10.000
 12.304      10.000
 12.314      10.000
 12.324      10.000
 12.334      10.000
 12.344      10.000
 12.354      10.000
 12.364      10.000
 12.374      10.000
 12.384      10.000
 12.394      10.000
 12.404      10.000
 12.414      10.000
 12.424      10.000
 12.434      10.000
 12.444      10.000
 12.454      10.000
 12.464      10.000
 12.474      10.000
 12.484      10.000
 12.494      10.000
 12.505      10.000
 12.515      10.000
 12.525      10.000
 12.535      10.000
 12.545      10.000
 12.555      10.000
 12.565      10.000
 12.575      10.000
 12.585      10.000
 12.595      10.000
 12.605      10.000
 12.615      10.000
 12.625      10.000
 12.635      10.000
 12.645      10.000
 12.655      10.000
 12.665      10.000
 12.675      10.000
 12.685      10.000
 12.695      10.000
 12.705      10.000
 12.715      10.000
 12.725      10.000
 12.735      10.000
 12.745      10.000
 12.755      10.000
 12.765      10.000
 12.775      10.000
 12.785      10.000
 12.795      10.000
 12.805      10.000
 12.815      10.000
 12.825      10.000
 12.835      10.000
 12.845      10.000
 12.855      10.000
 12.865      10.000
 12.875      10.000
 12.885      10.000
 12.895      10.000
 12.905      10.000
 12.915      10.000
 12.925      10.000
 12.935      10.000
 12.945      10.000
 12.955      10.000
 12.965      10.000
 12.975      10.000
 12.985      10.000
 12.995      10.000
 13.005      10.000
 13.015      10.000
 13.025      10.000
 13.035      10.000
 13.045      10.000
 13.055      10.000
 13.066      10.000
 13.076      10.000
 13.086      10.000
 13.096      10.000
 13.106      10.000
 13.116      10.000
 13.126      10.000
 13.136      10.000
 13.146      10.000
 13.156      10.000
 13.166      10.000
 13.176      10.000
 13.186      10.000
 13.196      10.000
 13.206      10.000
 13.216      10.000
 13.226      10.000
 13.236      10.000
 13.246      10.000
 13.256      10.000
 13.266      10.000
 13.276      10.000
 13.286      10.000
 13.296      10.000
 13.306      10.000
 13.316      10.000
 13.326      10.000
 13.336      10.000
 13.346      10.000
 13.356      10.000
 13.366      10.000
 13.376      10.000
 13.386      10.000
 13.396      10.000
 13.406      10.000
 13.416      10.000
 13.426      10.000
 13.436      10.000
 13.446      10.000
 13.456      10.000
 13.466      10.000
 13.476      10.000
 13.486      10.000
 13.496      10.000
 13.506      10.000
 13.516      10.000
 13.526      10.000
 13.536      10.000
 13.546      10.000
 13.556      10.000
 13.566      10.000
 13.576      10.000
 13.586      10.000
 13.596      10.000
 13.606      10.000
 13.616      10.000
 13.627      10.000
 13.637      10.000
 13.647      10.000
 13.657      10.000
 13.667      10.000
 13.677      10.000
 13.687      10.000
 13.697      10.000
 13.707      10.000
 13.717      10.000
 13.727      10.000
 13.737      10.000
 13.747      10.000
 13.757      10.000
 13.767      10.000
 13.777      10.000
 13.787      10.000
 13.797      10.000
 13.807      10.000
 13.817      10.000
 13.827      10.000
 13.837      10.000
 13.847      10.000
 13.857      10.000
 13.867      10.000
 13.877      10.000
 13.887      10.000
 13.897      10.000
 13.907      10.000
 13.917      10.000
 13.927      10.000
 13.937      10.000
 13.947      10.000
 13.957      10.000
 13.967      10.000
 13.977      10.000
 13.987      10.000
 13.997      10.000
 14.007      10.000
 14.017      10.000
 14.027      10.000
 14.037      10.000
 14.047      10.000
 14.057      10.000
 14.067      10.000
 14.077      10.000
 14.087      10.000
 14.097      10.000
 14.107      10.000
 14.117      10.000
 14.127      10.000
 14.137      10.000
 14.147      10.000
 14.157      10.000
 14.167      10.000
 14.178      10.000
 14.188      10.000
 14.198      10.000
 14.208      10.000
 14.218      10.000
 14.228      10.000
 14.238      10.000
 14.248      10.000
 14.258      10.000
 14.268      10.000
 14.278      10.000
 14.288      10.000
 14.298      10.000
 14.308      10.000
 14.318      10.000
 14.328      10.000
 14.338      10.000
 14.348      10.000
 14.358      10.000
 14.368      10.000
 14.378      10.000
 14.388      10.000
 14.398      10.000
 14.408      10.000
 14.418      10.000
 14.428      10.000
 14.438      10.000
 14.448      10.000
 14.458      10.000
 14.468      10.000
 14.478      10.001
 14.488      10.001
 14.498      10.001
 14.508      10.002
 14.518      10.003
 14.528      10.004
 14.538      10.006
 14.548      10.009
 14.558      10.012
 14.568      10.018
 14.578      10.025
 14.588      10.034
 14.598      10.048
 14.608      10.065
 14.618      10.090
 14.628      10.122
 14.638      10.164
 14.648      10.221
 14.658      10.295
 14.668      10.391
 14.678      10.515
 14.688      10.675
 14.698      10.879
 14.708      11.138
 14.718      11.463
 14.728      11.870
 14.739      12.375
 14.749      12.999
 14.759      13.762
 14.769      14.691
 14.779      15.813
 14.789      17.159
 14.799      18.763
 14.809      20.659
 14.819      22.887
 14.829      25.483
 14.839      28.488
 14.849      31.940
 14.859      35.876
 14.869      40.330
 14.879      45.332
 14.889      50.904
 14.899      57.064
 14.909      63.817
 14.919      71.160
 14.929      79.077
 14.939      87.537
 14.949      96.497
 14.959     105.898
 14.969     115.665
 14.979     125.708
 14.989     135.926
 14.999     146.202
 15.009     156.406
 15.019     166.406
 15.029     176.058
 15.039     185.220
 15.049     193.748
 15.059     201.502
 15.069     208.354
 15.079     214.184
 15.089     218.890
 15.099     222.387
 15.109     224.611
 15.119     225.522
 15.129     225.102
 15.139     223.360
 15.149     220.327
 15.159     216.060
 15.169     210.634
 15.179     204.147
 15.189     196.712
 15.199     188.455
 15.209     179.511
 15.219     170.022
 15.229     160.135
 15.239     149.989
 15.249     139.725
 15.259     129.472
 15.269     119.351
 15.279     109.471
 15.290      99.925
 15.300      90.794
 15.310      82.144
 15.320      74.022
 15.330      66.464
 15.340      59.492
 15.350      53.112
 15.360      47.325
 15.370      42.114
 15.380      37.461
 15.390      33.337
 15.400      29.710
 15.410      26.544
 15.420      23.802
 15.430      21.442
 15.440      19.428
 15.450      17.720
 15.460      16.283
 15.470      15.082
 15.480      14.085
 15.490      13.263
 15.500      12.591
 15.510      12.044
 15.520      11.603
 15.530      11.249
 15.540      10.968
 15.550      10.745
 15.560      10.570
 15.570      10.433
 15.580      10.327
 15.590      10.246
 15.600      10.184
 15.610      10.136
 15.620      10.100
 15.630      10.074
 15.640      10.054
 15.650      10.039
 15.660      10.028
 15.670      10.020
 15.680      10.014
 15.690      10.010
 15.700      10.007
 15.710      10.005
 15.720      10.003
 15.730      10.002
 15.740      10.002
 15.750      10.001
 15.760      10.001
 15.770      10.000
 15.780      10.000
 15.790      10.000
 15.800      10.000
 15.810      10.000
 15.820      10.000
 15.830      10.000
 15.840      10.000
 15.851      10.000
 15.861      10.000
 15.871      10.000
 15.881      10.000
 15.891      10.000
 15.901      10.000
 15.911      10.000
 15.921      10.000
 15.931      10.000
 15.941      10.000
 15.951      10.000
 15.961      10.000
 15.971      10.000
 15.981      10.000
 15.991      10.000
 16.001      10.000
 16.011      10.000
 16.021      10.000
 16.031      10.000
 16.041      10.000
 16.051      10.000
 16.061      10.000
 16.071      10.000
 16.081      10.000
 16.091      10.000
 16.101      10.000
 16.111      10.000
 16.121      10.000
 16.131      10.000
 16.141      10.000
 16.151      10.000
 16.161      10.000
 16.171      10.000
 16.181      10.000
 16.191      10.000
 16.201      10.000
 16.211      10.000
 16.221      10.000
 16.231      10.000
 16.241      10.000
 16.251      10.000
 16.261      10.000
 16.271      10.000
 16.281      10.000
 16.291      10.000
 16.301      10.000
 16.311      10.000
 16.321      10.000
 16.331      10.000
 16.341      10.000
 16.351      10.000
 16.361      10.000
 16.371      10.000
 16.381      10.000
 16.391      10.000
 16.402      10.000
 16.412      10.000
 16.422      10.000
 16.432      10.000
 16.442      10.000
 16.452      10.000
 16.462      10.000
 16.472      10.000
 16.482      10.000
 16.492      10.000
 16.502      10.000
 16.512      10.000
 16.522      10.000
 16.532      10.000
 16.542      10.000
 16.552      10.000
 16.562      10.000
 16.572      10.000
 16.582      10.000
 16.592      10.000
 16.602      10.000
 16.612      10.000
 16.622      10.000
 16.632      10.000
 16.642      10.000
 16.652      10.000
 16.662      10.000
 16.672      10.000
 16.682      10.000
 16.692      10.000
 16.702      10.000
 16.712      10.000
 16.722      10.000
 16.732      10.000
 16.742      10.000
 16.752      10.000
 16.762      10.000
 16.772      10.000
 16.782      10.000
 16.792      10.000
 16.802      10.000
 16.812      10.000
 16.822      10.000
 16.832      10.000
 16.842      10.000
 16.852      10.000
 16.862      10.000
 16.872      10.000
 16.882      10.000
 16.892      10.000
 16.902      10.000
 16.912      10.000
 16.922      10.000
 16.932      10.000
 16.942      10.000
 16.952      10.000
 16.963      10.000
 16.973      10.000
 16.983      10.000
 16.993      10.000
 17.003      10.000
 17.013      10.000
 17.023      10.000
 17.033      10.000
 17.043      10.000
 17.053      10.000
 17.063      10.000
 17.073      10.000
 17.083      10.000
 17.093      10.000
 17.103      10.000
 17.113      10.000
 17.123      10.000
 17.133      10.000
 17.143      10.000
 17.153      10.000
 17.163      10.000
 17.173      10.000
 17.183      10.000
 17.193      10.000
 17.203      10.000
 17.213      10.000
 17.223      10.000
 17.233      10.000
 17.243      10.000
 17.253      10.000
 17.263      10.000
 17.273      10.000
 17.283      10.000
 17.293      10.000
 17.303      10.000
 17.313      10.000
 17.323      10.000
 17.333      10.000
 17.343      10.000
 17.353      10.000
 17.363      10.000
 17.373      10.000
 17.383      10.000
 17.393      10.000
 17.403      10.000
 17.413      10.000
 17.423      10.000
 17.433      10.000
 17.443      10.000
 17.453      10.000
 17.463      10.000
 17.473      10.000
 17.483      10.000
 17.493      10.000
 17.503      10.000
 17.514      10.000
 17.524      10.000
 17.534      10.000
 17.544      10.000
 17.554      10.000
 17.564      10.000
 17.574      10.000
 17.584      10.000
 17.594      10.000
 17.604      10.000
 17.614      10.000
 17.624      10.000
 17.634      10.000
 17.644      10.000
 17.654      10.000
 17.664      10.000
 17.674      10.000
 17.684      10.000
 17.694      10.000
 17.704      10.000
 17.714      10.000
 17.724      10.000
 17.734      10.000
 17.744      10.000
 17.754      10.000
 17.764      10.000
 17.774      10.000
 17.784      10.000
 17.794      10.000
 17.804      10.000
 17.814      10.000
 17.824      10.000
 17.834      10.000
 17.844      10.000
 17.854      10.000
 17.864      10.000
 17.874      10.000
 17.884      10.000
 17.894      10.000
 17.904      10.000
 17.914      10.000
 17.924      10.000
 17.934      10.000
 17.944      10.000
 17.954      10.000
 17.964      10.000
 17.974      10.000
 17.984      10.000
 17.994      10.000
 18.004      10.000
 18.014      10.000
 18.024      10.000
 18.034      10.000
 18.044      10.000
 18.054      10.000
 18.064      10.000
 18.075      10.000
 18.085      10.000
 18.095      10.000
 18.105      10.000
 18.115      10.000
 18.125      10.000
 18.135      10.000
 18.145      10.000
 18.155      10.000
 18.165      10.000
 18.175      10.000
 18.185      10.000
 18.195      10.000
 18.205      10.000
 18.215      10.000
 18.225      10.000
 18.235      10.000
 18.245      10.000
 18.255      10.000
 18.265      10.000
 18.275      10.000
 18.285      10.000
 18.295      10.000
 18.305      10.000
 18.315      10.000
 18.325      10.000
 18.335      10.000
 18.345      10.000
 18.355      10.000
 18.365      10.000
 18.375      10.000
 18.385      10.000
 18.395      10.000
 18.405      10.000
 18.415      10.000
 18.425      10.000
 18.435      10.000
 18.445      10.000
 18.455      10.000
 18.465      10.000
 18.475      10.000
 18.485      10.000
 18.495      10.000
 18.505      10.000
 18.515      10.000
 18.525      10.000
 18.535      10.000
 18.545      10.000
 18.555      10.000
 18.565      10.000
 18.575      10.000
 18.585      10.000
 18.595      10.000
 18.605      10.000
 18.615      10.000
 18.625      10.000
 18.636      10.000
 18.646      10.000
 18.656      10.000
 18.666      10.000
 18.676      10.000
 18.686      10.000
 18.696      10.000
 18.706      10.000
 18.716      10.000
 18.726      10.000
 18.736      10.000
 18.746      10.000
 18.756      10.000
 18.766      10.000
 18.776      10.000
 18.786      10.000
 18.796      10.000
 18.806      10.000
 18.816      10.000
 18.826      10.000
 18.836      10.000
 18.846      10.000
 18.856      10.000
 18.866      10.000
 18.876      10.000
 18.886      10.000
 18.896      10.000
 18.906      10.000
 18.916      10.000
 18.926      10.000
 18.936      10.000
 18.946      10.000
 18.956      10.000
 18.966      10.000
 18.976      10.000
 18.986      10.000
 18.996      10.000
 19.006      10.000
 19.016      10.000
 19.026      10.000
 19.036      10.000
 19.046      10.000
 19.056      10.000
 19.066      10.000
 19.076      10.000
 19.086      10.000
 19.096      10.000
 19.106      10.000
 19.116      10.000
 19.126      10.000
 19.136      10.000
 19.146      10.000
 19.156      10.000
 19.166      10.000
 19.176      10.000
 19.187      10.000
 19.197      10.000
 19.207      10.000
 19.217      10.000
 19.227      10.000
 19.237      10.000
 19.247      10.000
 19.257      10.000
 19.267      10.000
 19.277      10.000
 19.287      10.000
 19.297      10.000
 19.307      10.000
 19.317      10.000
 19.327      10.000
 19.337      10.000
 19.347      10.000
 19.357      10.000
 19.367      10.000
 19.377      10.000
 19.387      10.000
 19.397      10.000
 19.407      10.000
 19.417      10.000
 19.427      10.000
 19.437      10.000
 19.447      10.000
 19.457      10.000
 19.467      10.000
 19.477      10.000
 19.487      10.000
 19.497      10.000
 19.507      10.000
 19.517      10.000
 19.527      10.000
 19.537      10.000
 19.547      10.000
 19.557      10.000
 19.567      10.000
 19.577      10.000
 19.587      10.000
 19.597      10.000
 19.607      10.000
 19.617      10.000
 19.627      10.000
 19.637      10.000
 19.647      10.000
 19.657      10.000
 19.667      10.000
 19.677      10.000
 19.687      10.000
 19.697      10.000
 19.707      10.000
 19.717      10.000
 19.727      10.000
 19.737      10.000
 19.748      10.000
 19.758      10.000
 19.768      10.000
 19.778      10.000
 19.788      10.000
 19.798      10.000
 19.808      10.000
 19.818      10.000
 19.828      10.000
 19.838      10.000
 19.848      10.000
 19.858      10.000
 19.868      10.000
 19.878      10.000
 19.888      10.000
 19.898      10.000
 19.908      10.000
 19.918      10.000
 19.928      10.000
 19.938      10.000
 19.948      10.000
 19.958      10.000
 19.968      10.000
 19.978      10.000
 19.988      10.000
 19.998      10.000
 20.008      10.000
 20.018      10.000
 20.028      10.000
 20.038      10.000
 20.048      10.000
 20.058      10.000
 20.068      10.000
 20.078      10.000
 20.088      10.000
 20.098      10.000
 20.108      10.000
 20.118      10.000
 20.128      10.000
 20.138      10.000
 20.148      10.000
 20.158      10.000
 20.168      10.000
 20.178      10.000
 20.188      10.000
 20.198      10.000
 20.208      10.000
 20.218      10.000
 20.228      10.000
 20.238      10.000
 20.248      10.000
 20.258      10.000
 20.268      10.000
 20.278      10.000
 20.288      10.000
 20.299      10.000
 20.309      10.000
 20.319      10.000
 20.329      10.000
 20.339      10.000
 20.349      10.000
 20.359      10.000
 20.369      10.000
 20.379      10.000
 20.389      10.000
 20.399      10.000
 20.409      10.000
 20.419      10.000
 20.429      10.000
 20.439      10.000
 20.449      10.000
 20.459      10.000
 20.469      10.000
 20.479      10.000
 20.489      10.000
 20.499      10.000
 20.509      10.000
 20.519      10.000
 20.529      10.000
 20.539      10.000
 20.549      10.000
 20.559      10.000
 20.569      10.000
 20.579      10.000
 20.589      10.000
 20.599      10.000
 20.609      10.000
 20.619      10.000
 20.629      10.000
 20.639      10.000
 20.649      10.000
 20.659      10.000
 20.669      10.000
 20.679      10.000
 20.689      10.000
 20.699      10.000
 20.709      10.000
 20.719      10.000
 20.729      10.000
 20.739      10.000
 20.749      10.000
 20.759      10.000
 20.769      10.000
 20.779      10.000
 20.789      10.000
 20.799      10.000
 20.809      10.000
 20.819      10.000
 20.829      10.001
 20.839      10.001
 20.849      10.001
 20.860      10.002
 20.870      10.002
 20.880      10.003
 20.890      10.005
 20.900      10.006
 20.910      10.009
 20.920      10.012
 20.930      10.017
 20.940      10.023
 20.950      10.032
 20.960      10.043
 20.970      10.058
 20.980      10.078
 20.990      10.104
 21.000      10.137
 21.010      10.180
 21.020      10.235
 21.030      10.306
 21.040      10.394
 21.050      10.505
 21.060      10.644
 21.070      10.815
 21.080      11.026
 21.090      11.284
 21.100      11.596
 21.110      11.971
 21.120      12.420
 21.130      12.953
 21.140      13.581
 21.150      14.315
 21.160      15.169
 21.170      16.153
 21.180      17.279
 21.190      18.558
 21.200      20.000
 21.210      21.613
 21.220      23.403
 21.230      25.374
 21.240      27.525
 21.250      29.854
 21.260      32.355
 21.270      35.014
 21.280      37.818
 21.290      40.746
 21.300      43.772
 21.310      46.867
 21.320      49.998
 21.330      53.128
 21.340      56.215
 21.350      59.218
 21.360      62.094
 21.370      64.797
 21.380      67.285
 21.390      69.518
 21.400      71.456
 21.411      73.066
 21.421      74.319
 21.431      75.193
 21.441      75.671
 21.451      75.745
 21.461      75.413
 21.471      74.682
 21.481      73.564
 21.491      72.081
 21.501      70.259
 21.511      68.130
 21.521      65.730
 21.531      63.100
 21.541      60.282
 21.551      57.320
 21.561      54.258
 21.571      51.140
 21.581      48.004
 21.591      44.892
 21.601      41.837
 21.611      38.870
 21.621      36.019
 21.631      33.305
 21.641      30.744
 21.651      28.352
 21.661      26.135
 21.671      24.099
 21.681      22.244
 21.691      20.567
 21.701      19.064
 21.711      17.726
 21.721      16.546
 21.731      15.511
 21.741      14.612
 21.751      13.835
 21.761      13.170
 21.771      12.604
 21.781      12.125
 21.791      11.724
 21.801      11.390
 21.811      11.114
 21.821      10.887
 21.831      10.702
 21.841      10.552
 21.851      10.432
 21.861      10.336
 21.871      10.259
 21.881      10.199
 21.891      10.152
 21.901      10.115
 21.911      10.087
 21.921      10.065
 21.931      10.048
 21.941      10.036
 21.951      10.026
 21.961      10.019
 21.972      10.014
 21.982      10.010
 21.992      10.007
 22.002      10.005
 22.012      10.004
 22.022      10.003
 22.032      10.002
 22.042      10.001
 22.052      10.001
 22.062      10.001
 22.072      10.000
 22.082      10.000
 22.092      10.000
 22.102      10.000
 22.112      10.000
 22.122      10.000
 22.132      10.000
 22.142      10.000
 22.152      10.000
 22.162      10.000
 22.172      10.000
 22.182      10.000
 22.192      10.000
 22.202      10.000
 22.212      10.000
 22.222      10.000
 22.232      10.000
 22.242      10.000
 22.252      10.000
 22.262      10.000
 22.272      10.000
 22.282      10.000
 22.292      10.000
 22.302      10.000
 22.312      10.000
 22.322      10.000
 22.332      10.000
 22.342      10.000
 22.352      10.000
 22.362      10.000
 22.372      10.000
 22.382      10.000
 22.392      10.000
 22.402      10.000
 22.412      10.000
 22.422      10.000
 22.432      10.000
 22.442      10.000
 22.452      10.000
 22.462      10.000
 22.472      10.000
 22.482      10.000
 22.492      10.000
 22.502      10.000
 22.512      10.000
 22.522      10.000
 22.533      10.000
 22.543      10.000
 22.553      10.000
 22.563      10.000
 22.573      10.000
 22.583      10.000
 22.593      10.000
 22.603      10.000
 22.613      10.000
 22.623      10.000
 22.633      10.000
 22.643      10.000
 22.653      10.000
 22.663      10.000
 22.673      10.000
 22.683      10.000
 22.693      10.000
 22.703      10.000
 22.713      10.000
 22.723      10.000
 22.733      10.000
 22.743      10.000
 22.753      10.000
 22.763      10.000
 22.773      10.000
 22.783      10.000
 22.793      10.000
 22.803      10.000
 22.813      10.000
 22.823      10.000
 22.833      10.000
 22.843      10.000
 22.853      10.000
 22.863      10.000
 22.873      10.000
 22.883      10.000
 22.893      10.000
 22.903      10.000
 22.913      10.000
 22.923      10.000
 22.933      10.000
 22.943      10.000
 22.953      10.000
 22.963      10.000
 22.973      10.000
 22.983      10.000
 22.993      10.000
 23.003      10.000
 23.013      10.000
 23.023      10.000
 23.033      10.000
 23.043      10.000
 23.053      10.000
 23.063      10.000
 23.073      10.000
 23.084      10.000
 23.094      10.000
 23.104      10.000
 23.114      10.000
 23.124      10.000
 23.134      10.000
 23.144      10.000
 23.154      10.000
 23.164      10.000
 23.174      10.000
 23.184      10.000
 23.194      10.000
 23.204      10.000
 23.214      10.000
 23.224      10.000
 23.234      10.000
 23.244      10.000
 23.254      10.000
 23.264      10.000
 23.274      10.000
 23.284      10.000
 23.294      10.000
 23.304      10.000
 23.314      10.000
 23.324      10.000
 23.334      10.000
 23.344      10.000
 23.354      10.000
 23.364      10.000
 23.374      10.000
 23.384      10.000
 23.394      10.000
 23.404      10.000
 23.414      10.000
 23.424      10.000
 23.434      10.000
 23.444      10.000
 23.454      10.000
 23.464      10.000
 23.474      10.000
 23.484      10.000
 23.494      10.000
 23.504      10.000
 23.514      10.000
 23.524      10.000
 23.534      10.000
 23.544      10.000
 23.554      10.000
 23.564      10.000
 23.574      10.000
 23.584      10.000
 23.594      10.000
 23.604      10.000
 23.614      10.000
 23.624      10.000
 23.634      10.000
 23.645      10.000
 23.655      10.000
 23.665      10.000
 23.675      10.000
 23.685      10.000
 23.695      10.000
 23.705      10.000
 23.715      10.000
 23.725      10.000
 23.735      10.000
 23.745      10.000
 23.755      10.000
 23.765      10.000
 23.775      10.000
 23.785      10.000
 23.795      10.000
 23.805      10.000
 23.815      10.000
 23.825      10.000
 23.835      10.000
 23.845      10.000
 23.855      10.000
 23.865      10.000
 23.875      10.000
 23.885      10.000
 23.895      10.000
 23.905      10.000
 23.915      10.000
 23.925      10.000
 23.935      10.000
 23.945      10.000
 23.955      10.000
 23.965      10.000
 23.975      10.000
 23.985      10.000
 23.995      10.000
 24.005      10.000
 24.015      10.000
 24.025      10.000
 24.035      10.000
 24.045      10.000
 24.055      10.000
 24.065      10.000
 24.075      10.000
 24.085      10.000
 24.095      10.000
 24.105      10.000
 24.115      10.000
 24.125      10.000
 24.135      10.000
 24.145      10.000
 24.155      10.000
 24.165      10.000
 24.175      10.000
 24.185      10.000
 24.196      10.000
 24.206      10.000
 24.216      10.000
 24.226      10.000
 24.236      10.000
 24.246      10.000
 24.256      10.000
 24.266      10.000
 24.276      10.000
 24.286      10.000
 24.296      10.000
 24.306      10.000
 24.316      10.000
 24.326      10.000
 24.336      10.000
 24.346      10.000
 24.356      10.000
 24.366      10.000
 24.376      10.000
 24.386      10.000
 24.396      10.000
 24.406      10.000
 24.416      10.000
 24.426      10.000
 24.436      10.000
 24.446      10.000
 24.456      10.000
 24.466      10.000
 24.476      10.000
 24.486      10.000
 24.496      10.000
 24.506      10.000
 24.516      10.000
 24.526      10.000
 24.536      10.000
 24.546      10.000
 24.556      10.000
 24.566      10.000
 24.576      10.000
 24.586      10.000
 24.596      10.000
 24.606      10.000
 24.616      10.000
 24.626      10.000
 24.636      10.000
 24.646      10.000
 24.656      10.000
 24.666      10.000
 24.676      10.000
 24.686      10.000
 24.696      10.000
 24.706      10.000
 24.716      10.000
 24.726      10.000
 24.736      10.000
 24.746      10.000
 24.757      10.000
 24.767      10.000
 24.777      10.000
 24.787      10.000
 24.797      10.000
 24.807      10.000
 24.817      10.000
 24.827      10.000
 24.837      10.000
 24.847      10.000
 24.857      10.000
 24.867      10.000
 24.877      10.000
 24.887      10.000
 24.897      10.000
 24.907      10.000
 24.917      10.000
 24.927      10.000
 24.937      10.000
 24.947      10.000
 24.957      10.000
 24.967      10.000
 24.977      10.000
 24.987      10.000
 24.997      10.000
 25.007      10.000
 25.017      10.000
 25.027      10.000
 25.037      10.000
 25.047      10.000
 25.057      10.000
 25.067      10.000
 25.077      10.000
 25.087      10.000
 25.097      10.000
 25.107      10.000
 25.117      10.000
 25.127      10.000
 25.137      10.000
 25.147      10.000
 25.157      10.000
 25.167      10.000
 25.177      10.000
 25.187      10.000
 25.197      10.000
 25.207      10.000
 25.217      10.000
 25.227      10.000
 25.237      10.000
 25.247      10.000
 25.257      10.000
 25.267      10.000
 25.277      10.000
 25.287      10.000
 25.297      10.000
 25.308      10.000
 25.318      10.000
 25.328      10.000
 25.338      10.000
 25.348      10.000
 25.358      10.000
 25.368      10.000
 25.378      10.000
 25.388      10.000
 25.398      10.000
 25.408      10.000
 25.418      10.000
 25.428      10.000
 25.438      10.000
 25.448      10.000
 25.458      10.000
 25.468      10.000
 25.478      10.000
 25.488      10.000
 25.498      10.000
 25.508      10.000
 25.518      10.000
 25.528      10.000
 25.538      10.000
 25.548      10.000
 25.558      10.000
 25.568      10.000
 25.578      10.000
 25.588      10.000
 25.598      10.000
 25.608      10.000
 25.618      10.000
 25.628      10.000
 25.638      10.000
 25.648      10.000
 25.658      10.000
 25.668      10.000
 25.678      10.000
 25.688      10.000
 25.698      10.000
 25.708      10.001
 25.718      10.001
 25.728      10.001
 25.738      10.002
 25.748      10.003
 25.758      10.005
 25.768      10.006
 25.778      10.009
 25.788      10.013
 25.798      10.018
 25.808      10.026
 25.818      10.036
 25.828      10.049
 25.838      10.068
 25.848      10.092
 25.858      10.125
 25.869      10.168
 25.879      10.226
 25.889      10.300
 25.899      10.397
 25.909      10.521
 25.919      10.681
 25.929      10.883
 25.939      11.140
 25.949      11.461
 25.959      11.861
 25.969      12.356
 25.979      12.965
 25.989      13.708
 25.999      14.608
 26.009      15.692
 26.019      16.988
 26.029      18.525
 26.039      20.337
 26.049      22.456
 26.059      24.917
 26.069      27.755
 26.079      31.002
 26.089      34.689
 26.099      38.846
 26.109      43.494
 26.119      48.651
 26.129      54.328
 26.139      60.524
 26.149      67.232
 26.159      74.432
 26.169      82.089
 26.179      90.159
 26.189      98.585
 26.199     107.291
 26.209     116.194
 26.219     125.199
 26.229     134.195
 26.239     143.068
 26.249     151.697
 26.259     159.957
 26.269     167.718
 26.279     174.858
 26.289     181.261
 26.299     186.815
 26.309     191.423
 26.319     195.005
 26.329     197.493
 26.339     198.844
 26.349     199.033
 26.359     198.055
 26.369     195.929
 26.379     192.693
 26.389     188.408
 26.399     183.149
 26.409     177.008
 26.420     170.093
 26.430     162.519
 26.440     154.407
 26.450     145.883
 26.460     137.074
 26.470     128.105
 26.480     119.090
 26.490     110.144
 26.500     101.364
 26.510      92.839
 26.520      84.648
 26.530      76.852
 26.540      69.500
 26.550      62.632
 26.560      56.269
 26.570      50.423
 26.580      45.100
 26.590      40.289
 26.600      35.976
 26.610      32.141
 26.620      28.755
 26.630      25.789
 26.640      23.210
 26.650      20.985
 26.660      19.078
 26.670      17.455
 26.680      16.085
 26.690      14.936
 26.700      13.980
 26.710      13.189
 26.720      12.539
 26.730      12.009
 26.740      11.580
 26.750      11.235
 26.760      10.960
 26.770      10.741
 26.780      10.568
 26.790      10.433
 26.800      10.329
 26.810      10.247
 26.820      10.185
 26.830      10.138
 26.840      10.102
 26.850      10.075
 26.860      10.055
 26.870      10.040
 26.880      10.029
 26.890      10.021
 26.900      10.015
 26.910      10.010
 26.920      10.007
 26.930      10.005
 26.940      10.004
 26.950      10.002
 26.960      10.002
 26.970      10.001
 26.981      10.001
 26.991      10.001
 27.001      10.000
 27.011      10.000
 27.021      10.000
 27.031      10.000
 27.041      10.000
 27.051      10.000
 27.061      10.000
 27.071      10.000
 27.081      10.000
 27.091      10.000
 27.101      10.000
 27.111      10.000
 27.121      10.000
 27.131      10.000
 27.141      10.000
 27.151      10.000
 27.161      10.000
 27.171      10.000
 27.181      10.000
 27.191      10.000
 27.201      10.000
 27.211      10.000
 27.221      10.000
 27.231      10.000
 27.241      10.000
 27.251      10.000
 27.261      10.000
 27.271      10.000
 27.281      10.000
 27.291      10.000
 27.301      10.000
 27.311      10.000
 27.321      10.000
 27.331      10.000
 27.341      10.000
 27.351      10.000
 27.361      10.000
 27.371      10.000
 27.381      10.000
 27.391      10.000
 27.401      10.000
 27.411      10.000
 27.421      10.000
 27.431      10.000
 27.441      10.000
 27.451      10.000
 27.461      10.000
 27.471      10.000
 27.481      10.000
 27.491      10.000
 27.501      10.000
 27.511      10.000
 27.521      10.000
 27.531      10.000
 27.542      10.000
 27.552      10.000
 27.562      10.000
 27.572      10.000
 27.582      10.000
 27.592      10.000
 27.602      10.000
 27.612      10.000
 27.622      10.000
 27.632      10.000
 27.642      10.000
 27.652      10.000
 27.662      10.000
 27.672      10.000
 27.682      10.000
 27.692      10.000
 27.702      10.000
 27.712      10.000
 27.722      10.000
 27.732      10.000
 27.742      10.000
 27.752      10.000
 27.762      10.000
 27.772      10.000
 27.782      10.000
 27.792      10.000
 27.802      10.000
 27.812      10.000
 27.822      10.000
 27.832      10.000
 27.842      10.000
 27.852      10.000
 27.862      10.000
 27.872      10.000
 27.882      10.000
 27.892      10.000
 27.902      10.000
 27.912      10.000
 27.922      10.000
 27.932      10.000
 27.942      10.000
 27.952      10.000
 27.962      10.000
 27.972      10.000
 27.982      10.000
 27.992      10.000
 28.002      10.000
 28.012      10.000
 28.022      10.000
 28.032      10.000
 28.042      10.000
 28.052      10.000
 28.062      10.000
 28.072      10.000
 28.082      10.000
 28.093      10.000
 28.103      10.000
 28.113      10.000
 28.123      10.000
 28.133      10.000
 28.143      10.000
 28.153      10.000
 28.163      10.000
 28.173      10.000
 28.183      10.000
 28.193      10.000
 28.203      10.000
 28.213      10.000
 28.223      10.000
 28.233      10.000
 28.243      10.000
 28.253      10.000
 28.263      10.000
 28.273      10.000
 28.283      10.000
 28.293      10.000
 28.303      10.000
 28.313      10.000
 28.323      10.000
 28.333      10.000
 28.343      10.000
 28.353      10.000
 28.363      10.000
 28.373      10.000
 28.383      10.000
 28.393      10.000
 28.403      10.000
 28.413      10.000
 28.423      10.000
 28.433      10.000
 28.443      10.000
 28.453      10.000
 28.463      10.000
 28.473      10.000
 28.483      10.000
 28.493      10.000
 28.503      10.000
 28.513      10.000
 28.523      10.000
 28.533      10.000
 28.543      10.000
 28.553      10.000
 28.563      10.000
 28.573      10.000
 28.583      10.000
 28.593      10.000
 28.603      10.000
 28.613      10.000
 28.623      10.000
 28.633      10.000
 28.643      10.000
 28.654      10.000
 28.664      10.000
 28.674      10.000
 28.684      10.000
 28.694      10.000
 28.704      10.000
 28.714      10.000
 28.724      10.000
 28.734      10.000
 28.744      10.000
 28.754      10.000
 28.764      10.000
 28.774      10.000
 28.784      10.000
 28.794      10.000
 28.804      10.000
 28.814      10.000
 28.824      10.000
 28.834      10.000
 28.844      10.000
 28.854      10.000
 28.864      10.000
 28.874      10.000
 28.884      10.000
 28.894      10.000
 28.904      10.000
 28.914      10.000
 28.924      10.000
 28.934      10.000
 28.944      10.000
 28.954      10.000
 28.964      10.000
 28.974      10.000
 28.984      10.000
 28.994      10.000
 29.004      10.000
 29.014      10.000
 29.024      10.000
 29.034      10.000
 29.044      10.000
 29.054      10.000
 29.064      10.000
 29.074      10.000
 29.084      10.000
 29.094      10.000
 29.104      10.000
 29.114      10.000
 29.124      10.000
 29.134      10.000
 29.144      10.000
 29.154      10.000
 29.164      10.000
 29.174      10.000
 29.184      10.000
 29.194      10.000
 29.205      10.000
 29.215      10.000
 29.225      10.000
 29.235      10.000
 29.245      10.000
 29.255      10.000
 29.265      10.000
 29.275      10.000
 29.285      10.000
 29.295      10.000
 29.305      10.000
 29.315      10.000
 29.325      10.000
 29.335      10.000
 29.345      10.000
 29.355      10.000
 29.365      10.000
 29.375      10.000
 29.385      10.000
 29.395      10.000
 29.405      10.000
 29.415      10.000
 29.425      10.000
 29.435      10.000
 29.445      10.000
 29.455      10.000
 29.465      10.000
 29.475      10.000
 29.485      10.000
 29.495      10.000
 29.505      10.000
 29.515      10.000
 29.525      10.000
 29.535      10.000
 29.545      10.000
 29.555      10.000
 29.565      10.000
 29.575      10.000
 29.585      10.000
 29.595      10.000
 29.605      10.000
 29.615      10.000
 29.625      10.000
 29.635      10.000
 29.645      10.000
 29.655      10.000
 29.665      10.000
 29.675      10.000
 29.685      10.000
 29.695      10.000
 29.705      10.000
 29.715      10.000
 29.725      10.000
 29.735      10.000
 29.745      10.000
 29.755      10.000
 29.766      10.000
 29.776      10.000
 29.786      10.000
 29.796      10.000
 29.806      10.000
 29.816      10.000
 29.826      10.000
 29.836      10.000
 29.846      10.000
 29.856      10.000
 29.866      10.000
 29.876      10.000
 29.886      10.000
 29.896      10.001
 29.906      10.001
 29.916      10.001
 29.926      10.002
 29.936      10.002
 29.946      10.004
 29.956      10.005
 29.966      10.007
 29.976      10.010
 29.986      10.014
 29.996      10.019
 30.006      10.026
 30.016      10.035
 30.026      10.048
 30.036      10.065
 30.046      10.086
 30.056      10.115
 30.066      10.152
 30.076      10.200
 30.086      10.261
 30.096      10.339
 30.106      10.437
 30.116      10.561
 30.126      10.714
 30.136      10.905
 30.146      11.139
 30.156      11.424
 30.166      11.770
 30.176      12.187
 30.186      12.685
 30.196      13.276
 30.206      13.974
 30.216      14.789
 30.226      15.736
 30.236      16.829
 30.246      18.079
 30.256      19.499
 30.266      21.100
 30.276      22.890
 30.286      24.877
 30.296      27.066
 30.306      29.454
 30.317      32.041
 30.327      34.818
 30.337      37.772
 30.347      40.886
 30.357      44.138
 30.367      47.500
 30.377      50.938
 30.387      54.416
 30.397      57.893
 30.407      61.324
 30.417      64.661
 30.427      67.857
 30.437      70.862
 30.447      73.628
 30.457      76.110
 30.467      78.265
 30.477      80.056
 30.487      81.451
 30.497      82.424
 30.507      82.958
 30.517      83.043
 30.527      82.677
 30.537      81.868
 30.547      80.629
 30.557      78.984
 30.567      76.962
 30.577      74.598
 30.587      71.933
 30.597      69.013
 30.607      65.884
 30.617      62.594
 30.627      59.193
 30.637      55.728
 30.647      52.245
 30.657      48.787
 30.667      45.392
 30.677      42.095
 30.687      38.927
 30.697      35.910
 30.707      33.064
 30.717      30.405
 30.727      27.941
 30.737      25.677
 30.747      23.615
 30.757      21.751
 30.767      20.079
 30.777      18.593
 30.787      17.280
 30.797      16.130
 30.807      15.129
 30.817      14.266
 30.827      13.526
 30.837      12.896
 30.847      12.364
 30.857      11.918
 30.867      11.547
 30.878      11.240
 30.888      10.987
 30.898      10.781
 30.908      10.615
 30.918      10.481
 30.928      10.373
 30.938      10.288
 30.948      10.221
 30.958      10.169
 30.968      10.128
 30.978      10.096
 30.988      10.072
 30.998      10.054
 31.008      10.040
 31.018      10.029
 31.028      10.021
 31.038      10.015
 31.048      10.011
 31.058      10.008
 31.068      10.006
 31.078      10.004
 31.088      10.003
 31.098      10.002
 31.108      10.001
 31.118      10.001
 31.128      10.001
 31.138      10.000
 31.148      10.000
 31.158      10.000
 31.168      10.000
 31.178      10.000
 31.188      10.000
 31.198      10.000
 31.208      10.000
 31.218      10.000
 31.228      10.000
 31.238      10.000
 31.248      10.000
 31.258      10.000
 31.268      10.000
 31.278      10.000
 31.288      10.000
 31.298      10.000
 31.308      10.000
 31.318      10.000
 31.328      10.000
 31.338      10.000
 31.348      10.000
 31.358      10.000
 31.368      10.000
 31.378      10.000
 31.388      10.000
 31.398      10.000
 31.408      10.000
 31.418      10.000
 31.429      10.000
 31.439      10.000
 31.449      10.000
 31.459      10.000
 31.469      10.000
 31.479      10.000
 31.489      10.000
 31.499      10.000
 31.509      10.000
 31.519      10.000
 31.529      10.000
 31.539      10.000
 31.549      10.000
 31.559      10.000
 31.569      10.000
 31.579      10.000
 31.589      10.000
 31.599      10.000
 31.609      10.000
 31.619      10.000
 31.629      10.000
 31.639      10.000
 31.649      10.000
 31.659      10.000
 31.669      10.000
 31.679      10.000
 31.689      10.000
 31.699      10.000
 31.709      10.000
 31.719      10.000
 31.729      10.000
 31.739      10.000
 31.749      10.000
 31.759      10.000
 31.769      10.000
 31.779      10.000
 31.789      10.000
 31.799      10.000
 31.809      10.000
 31.819      10.000
 31.829      10.000
 31.839      10.000
 31.849      10.000
 31.859      10.000
 31.869      10.000
 31.879      10.000
 31.889      10.000
 31.899      10.000
 31.909      10.000
 31.919      10.000
 31.929      10.000
 31.939      10.000
 31.949      10.000
 31.959      10.000
 31.969      10.000
 31.979      10.000
 31.990      10.000
 32.000      10.000
 32.010      10.000
 32.020      10.000
 32.030      10.000
 32.040      10.000
 32.050      10.000
 32.060      10.000
 32.070      10.000
 32.080      10.000
 32.090      10.000
 32.100      10.000
 32.110      10.000
 32.120      10.000
 32.130      10.000
 32.140      10.000
 32.150      10.000
 32.160      10.000
 32.170      10.000
 32.180      10.000
 32.190      10.000
 32.200      10.000
 32.210      10.000
 32.220      10.000
 32.230      10.000
 32.240      10.000
 32.250      10.000
 32.260      10.000
 32.270      10.000
 32.280      10.000
 32.290      10.000
 32.300      10.000
 32.310      10.000
 32.320      10.000
 32.330      10.000
 32.340      10.000
 32.350      10.000
 32.360      10.000
 32.370      10.000
 32.380      10.000
 32.390      10.000
 32.400      10.000
 32.410      10.000
 32.420      10.000
 32.430      10.000
 32.440      10.000
 32.450      10.000
 32.460      10.000
 32.470      10.000
 32.480      10.000
 32.490      10.000
 32.500      10.000
 32.510      10.000
 32.520      10.000
 32.530      10.000
 32.541      10.000
 32.551      10.000
 32.561      10.000
 32.571      10.000
 32.581      10.000
 32.591      10.000
 32.601      10.000
 32.611      10.000
 32.621      10.000
 32.631      10.000
 32.641      10.000
 32.651      10.000
 32.661      10.000
 32.671      10.000
 32.681      10.000
 32.691      10.000
 32.701      10.000
 32.711      10.000
 32.721      10.000
 32.731      10.000
 32.741      10.000
 32.751      10.000
 32.761      10.000
 32.771      10.000
 32.781      10.000
 32.791      10.000
 32.801      10.000
 32.811      10.000
 32.821      10.000
 32.831      10.000
 32.841      10.000
 32.851      10.000
 32.861      10.000
 32.871      10.000
 32.881      10.000
 32.891      10.000
 32.901      10.000
 32.911      10.000
 32.921      10.000
 32.931      10.000
 32.941      10.000
 32.951      10.000
 32.961      10.000
 32.971      10.000
 32.981      10.000
 32.991      10.000
 33.001      10.000
 33.011      10.000
 33.021      10.000
 33.031      10.000
 33.041      10.000
 33.051      10.000
 33.061      10.000
 33.071      10.000
 33.081      10.000
 33.091      10.000
 33.102      10.000
 33.112      10.000
 33.122      10.000
 33.132      10.000
 33.142      10.000
 33.152      10.000
 33.162      10.000
 33.172      10.000
 33.182      10.000
 33.192      10.000
 33.202      10.000
 33.212      10.000
 33.222      10.000
 33.232      10.000
 33.242      10.000
 33.252      10.000
 33.262      10.000
 33.272      10.000
 33.282      10.000
 33.292      10.000
 33.302      10.000
 33.312      10.000
 33.322      10.000
 33.332      10.000
 33.342      10.000
 33.352      10.000
 33.362      10.000
 33.372      10.000
 33.382      10.000
 33.392      10.000
 33.402      10.000
 33.412      10.000
 33.422      10.000
 33.432      10.000
 33.442      10.000
 33.452      10.000
 33.462      10.000
 33.472      10.000
 33.482      10.000
 33.492      10.000
 33.502      10.000
 33.512      10.000
 33.522      10.000
 33.532      10.000
 33.542      10.000
 33.552      10.000
 33.562      10.000
 33.572      10.000
 33.582      10.000
 33.592      10.001
 33.602      10.001
 33.612      10.001
 33.622      10.002
 33.632      10.003
 33.642      10.004
 33.652      10.006
 33.663      10.008
 33.673      10.012
 33.683      10.016
 33.693      10.022
 33.703      10.031
 33.713      10.042
 33.723      10.058
 33.733      10.078
 33.743      10.105
 33.753      10.141
 33.763      10.187
 33.773      10.248
 33.783      10.326
 33.793      10.425
 33.803      10.552
 33.813      10.712
 33.823      10.912
 33.833      11.162
 33.843      11.471
 33.853      11.851
 33.863      12.314
 33.873      12.876
 33.883      13.552
 33.893      14.360
 33.903      15.319
 33.913      16.450
 33.923      17.771
 33.933      19.306
 33.943      21.075
 33.953      23.100
 33.963      25.399
 33.973      27.990
 33.983      30.887
 33.993      34.102
 34.003      37.639
 34.013      41.500
 34.023      45.679
 34.033      50.164
 34.043      54.936
 34.053      59.962
 34.063      65.208
 34.073      70.629
 34.083      76.172
 34.093      81.777
 34.103      87.379
 34.113      92.901
 34.123      98.269
 34.133     103.407
 34.143     108.233
 34.153     112.673
 34.163     116.653
 34.173     120.103
 34.183     122.964
 34.193     125.185
 34.203     126.725
 34.214     127.557
 34.224     127.666
 34.234     127.048
 34.244     125.715
 34.254     123.693
 34.264     121.018
 34.274     117.737
 34.284     113.909
 34.294     109.598
 34.304     104.878
 34.314      99.825
 34.324      94.517
 34.334      89.032
 34.344      83.448
 34.354      77.836
 34.364      72.268
 34.374      66.805
 34.384      61.501
 34.394      56.405
 34.404      51.556
 34.414      46.984
 34.424      42.710
 34.434      38.754
 34.444      35.120
 34.454      31.810
 34.464      28.819
 34.474      26.139
 34.484      23.754
 34.494      21.650
 34.504      19.807
 34.514      18.205
 34.524      16.822
 34.534      15.637
 34.544      14.629
 34.554      13.778
 34.564      13.065
 34.574      12.471
 34.584      11.979
 34.594      11.576
 34.604      11.247
 34.614      10.981
 34.624      10.767
 34.634      10.595
 34.644      10.460
 34.654      10.353
 34.664      10.269
 34.674      10.204
 34.684      10.153
 34.694      10.115
 34.704      10.085
 34.714      10.063
 34.724      10.046
 34.734      10.034
 34.744      10.025
 34.754      10.018
 34.764      10.013
 34.775      10.009
 34.785      10.006
 34.795      10.005
 34.805      10.003
 34.815      10.002
 34.825      10.002
 34.835      10.001
 34.845      10.001
 34.855      10.000
 34.865      10.000
 34.875      10.000
 34.885      10.000
 34.895      10.000
 34.905      10.000
 34.915      10.000
 34.925      10.000
 34.935      10.000
 34.945      10.000
 34.955      10.000
 34.965      10.000
 34.975      10.000
 34.985      10.000
 34.995      10.000
 35.005      10.000
 35.015      10.000
 35.025      10.000
 35.035      10.000
 35.045      10.000
 35.055      10.000
 35.065      10.000
 35.075      10.000
 35.085      10.000
 35.095      10.000
 35.105      10.000
 35.115      10.000
 35.125      10.000
 35.135      10.000
 35.145      10.000
 35.155      10.000
 35.165      10.000
 35.175      10.000
 35.185      10.000
 35.195      10.000
 35.205      10.000
 35.215      10.000
 35.225      10.000
 35.235      10.000
 35.245      10.000
 35.255      10.000
 35.265      10.000
 35.275      10.000
 35.285      10.000
 35.295      10.000
 35.305      10.000
 35.315      10.000
 35.326      10.000
 35.336      10.000
 35.346      10.000
 35.356      10.000
 35.366      10.000
 35.376      10.000
 35.386      10.000
 35.396      10.000
 35.406      10.000
 35.416      10.000
 35.426      10.000
 35.436      10.000
 35.446      10.000
 35.456      10.000
 35.466      10.000
 35.476      10.000
 35.486      10.000
 35.496      10.000
 35.506      10.000
 35.516      10.000
 35.526      10.000
 35.536      10.000
 35.546      10.000
 35.556      10.000
 35.566      10.000
 35.576      10.000
 35.586      10.000
 35.596      10.000
 35.606      10.000
 35.616      10.000
 35.626      10.000
 35.636      10.000
 35.646      10.000
 35.656      10.000
 35.666      10.000
 35.676      10.000
 35.686      10.000
 35.696      10.000
 35.706      10.000
 35.716      10.000
 35.726      10.000
 35.736      10.000
 35.746      10.000
 35.756      10.000
 35.766      10.000
 35.776      10.000
 35.786      10.000
 35.796      10.000
 35.806      10.000
 35.816      10.000
 35.826      10.000
 35.836      10.000
 35.846      10.000
 35.856      10.000
 35.866      10.000
 35.876      10.000
 35.887      10.000
 35.897      10.000
 35.907      10.000
 35.917      10.000
 35.927      10.000
 35.937      10.000
 35.947      10.000
 35.957      10.000
 35.967      10.000
 35.977      10.000
 35.987      10.000
 35.997      10.000
 36.007      10.000
 36.017      10.000
 36.027      10.000
 36.037      10.000
 36.047      10.000
 36.057      10.000
 36.067      10.000
 36.077      10.000
 36.087      10.000
 36.097      10.000
 36.107      10.000
 36.117      10.000
 36.127      10.000
 36.137      10.000
 36.147      10.000
 36.157      10.000
 36.167      10.000
 36.177      10.000
 36.187      10.000
 36.197      10.000
 36.207      10.000
 36.217      10.000
 36.227      10.000
 36.237      10.000
 36.247      10.000
 36.257      10.000
 36.267      10.000
 36.277      10.000
 36.287      10.000
 36.297      10.000
 36.307      10.000
 36.317      10.000
 36.327      10.000
 36.337      10.000
 36.347      10.000
 36.357      10.000
 36.367      10.000
 36.377      10.000
 36.387      10.000
 36.397      10.000
 36.407      10.000
 36.417      10.000
 36.427      10.000
 36.438      10.000
 36.448      10.000
 36.458      10.000
 36.468      10.000
 36.478      10.000
 36.488      10.000
 36.498      10.000
 36.508      10.000
 36.518      10.000
 36.528      10.000
 36.538      10.000
 36.548      10.000
 36.558      10.000
 36.568      10.000
 36.578      10.000
 36.588      10.000
 36.598      10.000
 36.608      10.000
 36.618      10.000
 36.628      10.000
 36.638      10.000
 36.648      10.000
 36.658      10.000
 36.668      10.000
 36.678      10.000
 36.688      10.000
 36.698      10.000
 36.708      10.000
 36.718      10.000
 36.728      10.000
 36.738      10.000
 36.748      10.000
 36.758      10.000
 36.768      10.000
 36.778      10.000
 36.788      10.000
 36.798      10.000
 36.808      10.000
 36.818      10.000
 36.828      10.000
 36.838      10.000
 36.848      10.000
 36.858      10.000
 36.868      10.000
 36.878      10.000
 36.888      10.000
 36.898      10.000
 36.908      10.000
 36.918      10.000
 36.928      10.000
 36.938      10.000
 36.948      10.000
 36.958      10.000
 36.968      10.000
 36.978      10.000
 36.988      10.000
 36.999      10.000
 37.009      10.001
 37.019      10.001
 37.029      10.001
 37.039      10.002
 37.049      10.003
 37.059      10.004
 37.069      10.005
 37.079      10.007
 37.089      10.009
 37.099      10.013
 37.109      10.018
 37.119      10.024
 37.129      10.032
 37.139      10.043
 37.149      10.057
 37.159      10.075
 37.169      10.098
 37.179      10.128
 37.189      10.166
 37.199      10.214
 37.209      10.273
 37.219      10.348
 37.229      10.439
 37.239      10.551
 37.249      10.688
 37.259      10.853
 37.269      11.052
 37.279      11.288
 37.289      11.568
 37.299      11.897
 37.309      12.281
 37.319      12.726
 37.329      13.237
 37.339      13.821
 37.349      14.482
 37.359      15.225
 37.369      16.054
 37.379      16.971
 37.389      17.977
 37.399      19.073
 37.409      20.255
 37.419      21.519
 37.429      22.860
 37.439      24.269
 37.449      25.734
 37.459      27.243
 37.469      28.780
 37.479      30.327
 37.489      31.867
 37.499      33.378
 37.509      34.840
 37.519      36.231
 37.529      37.528
 37.539      38.712
 37.549      39.762
 37.560      40.660
 37.570      41.390
 37.580      41.940
 37.590      42.299
 37.600      42.461
 37.610      42.423
 37.620      42.185
 37.630      41.751
 37.640      41.131
 37.650      40.334
 37.660      39.376
 37.670      38.272
 37.680      37.043
 37.690      35.707
 37.700      34.286
 37.710      32.803
 37.720      31.278
 37.730      29.733
 37.740      28.187
 37.750      26.660
 37.760      25.166
 37.770      23.721
 37.780      22.337
 37.790      21.024
 37.800      19.791
 37.810      18.642
 37.820      17.580
 37.830      16.608
 37.840      15.725
 37.850      14.930
 37.860      14.219
 37.870      13.588
 37.880      13.033
 37.890      12.547
 37.900      12.127
 37.910      11.765
 37.920      11.455
 37.930      11.192
 37.940      10.971
 37.950      10.786
 37.960      10.632
 37.970      10.506
 37.980      10.402
 37.990      10.317
 38.000      10.249
 38.010      10.194
 38.020      10.150
 38.030      10.116
 38.040      10.089
 38.050      10.068
 38.060      10.051
 38.070      10.038
 38.080      10.029
 38.090      10.021
 38.100      10.016
 38.111      10.012
 38.121      10.008
 38.131      10.006
 38.141      10.004
 38.151      10.003
 38.161      10.002
 38.171      10.002
 38.181      10.001
 38.191      10.001
 38.201      10.001
 38.211      10.000
 38.221      10.000
 38.231      10.000
 38.241      10.000
 38.251      10.000
 38.261      10.000
 38.271      10.000
 38.281      10.000
 38.291      10.000
 38.301      10.000
 38.311      10.000
 38.321      10.000
 38.331      10.000
 38.341      10.000
 38.351      10.000
 38.361      10.000
 38.371      10.000
 38.381      10.000
 38.391      10.000
 38.401      10.000
 38.411      10.000
 38.421      10.000
 38.431      10.000
 38.441      10.000
 38.451      10.000
 38.461      10.000
 38.471      10.000
 38.481      10.000
 38.491      10.000
 38.501      10.000
 38.511      10.000
 38.521      10.000
 38.531      10.000
 38.541      10.000
 38.551      10.000
 38.561      10.000
 38.571      10.000
 38.581      10.000
 38.591      10.000
 38.601      10.000
 38.611      10.000
 38.621      10.000
 38.631      10.000
 38.641      10.000
 38.651      10.000
 38.661      10.000
 38.672      10.000
 38.682      10.000
 38.692      10.000
 38.702      10.000
 38.712      10.000
 38.722      10.000
 38.732      10.000
 38.742      10.000
 38.752      10.000
 38.762      10.000
 38.772      10.000
 38.782      10.000
 38.792      10.000
 38.802      10.000
 38.812      10.000
 38.822      10.000
 38.832      10.000
 38.842      10.000
 38.852      10.000
 38.862      10.000
 38.872      10.000
 38.882      10.000
 38.892      10.000
 38.902      10.000
 38.912      10.000
 38.922      10.000
 38.932      10.000
 38.942      10.000
 38.952      10.000
 38.962      10.000
 38.972      10.000
 38.982      10.000
 38.992      10.000
 39.002      10.000
 39.012      10.000
 39.022      10.000
 39.032      10.000
 39.042      10.000
 39.052      10.000
 39.062      10.000
 39.072      10.000
 39.082      10.000
 39.092      10.000
 39.102      10.000
 39.112      10.000
 39.122      10.000
 39.132      10.000
 39.142      10.000
 39.152      10.000
 39.162      10.000
 39.172      10.000
 39.182      10.000
 39.192      10.000
 39.202      10.000
 39.212      10.000
 39.223      10.000
 39.233      10.000
 39.243      10.000
 39.253      10.000
 39.263      10.000
 39.273      10.000
 39.283      10.000
 39.293      10.000
 39.303      10.000
 39.313      10.000
 39.323      10.000
 39.333      10.000
 39.343      10.000
 39.353      10.000
 39.363      10.000
 39.373      10.000
 39.383      10.000
 39.393      10.000
 39.403      10.000
 39.413      10.000
 39.423      10.000
 39.433      10.000
 39.443      10.000
 39.453      10.000
 39.463      10.000
 39.473      10.000
 39.483      10.000
 39.493      10.000
 39.503      10.000
 39.513      10.000
 39.523      10.000
 39.533      10.000
 39.543      10.000
 39.553      10.000
 39.563      10.000
 39.573      10.000
 39.583      10.000
 39.593      10.000
 39.603      10.000
 39.613      10.000
 39.623      10.000
 39.633      10.000
 39.643      10.000
 39.653      10.000
 39.663      10.000
 39.673      10.000
 39.683      10.000
 39.693      10.000
 39.703      10.000
 39.713      10.000
 39.723      10.000
 39.733      10.000
 39.743      10.000
 39.753      10.000
 39.763      10.000
 39.773      10.000
 39.784      10.000
 39.794      10.000
 39.804      10.000
 39.814      10.000
 39.824      10.000
 39.834      10.000
 39.844      10.000
 39.854      10.000
 39.864      10.000
 39.874      10.000
 39.884      10.000
 39.894      10.000
 39.904      10.000
 39.914      10.000
 39.924      10.000
 39.934      10.000
 39.944      10.000
 39.954      10.000
 39.964      10.000
 39.974      10.000
 39.984      10.000
 39.994      10.000
 40.004      10.000
 40.014      10.000
 40.024      10.000
 40.034      10.000
 40.044      10.000
 40.054      10.000
 40.064      10.000
 40.074      10.000
 40.084      10.000
 40.094      10.000
 40.104      10.001
 40.114      10.001
 40.124      10.001
 40.134      10.002
 40.144      10.003
 40.154      10.004
 40.164      10.005
 40.174      10.008
 40.184      10.011
 40.194      10.015
 40.204      10.021
 40.214      10.029
 40.224      10.041
 40.234      10.056
 40.244      10.076
 40.254      10.103
 40.264      10.139
 40.274      10.186
 40.284      10.248
 40.294      10.329
 40.304      10.432
 40.314      10.565
 40.324      10.734
 40.335      10.948
 40.345      11.216
 40.355      11.551
 40.365      11.966
 40.375      12.476
 40.385      13.100
 40.395      13.857
 40.405      14.770
 40.415      15.862
 40.425      17.159
 40.435      18.690
 40.445      20.483
 40.455      22.568
 40.465      24.974
 40.475      27.731
 40.485      30.868
 40.495      34.407
 40.505      38.371
 40.515      42.774
 40.525      47.628
 40.535      52.934
 40.545      58.689
 40.555      64.872
 40.565      71.459
 40.575      78.412
 40.585      85.683
 40.595      93.210
 40.605     100.923
 40.615     108.741
 40.625     116.566
 40.635     124.303
 40.645     131.846
 40.655     139.086
 40.665     145.913
 40.675     152.222
 40.685     157.903
 40.695     162.864
 40.705     167.017
 40.715     170.289
 40.725     172.620
 40.735     173.969
 40.745     174.309
 40.755     173.635
 40.765     171.959
 40.775     169.312
 40.785     165.743
 40.795     161.313
 40.805     156.105
 40.815     150.206
 40.825     143.717
 40.835     136.741
 40.845     129.389
 40.855     121.771
 40.865     113.990
 40.875     106.158
 40.885      98.367
 40.896      90.707
 40.906      83.256
 40.916      76.084
 40.926      69.244
 40.936      62.786
 40.946      56.743
 40.956      51.136
 40.966      45.979
 40.976      41.274
 40.986      37.016
 40.996      33.194
 41.006      29.791
 41.016      26.783
 41.026      24.144
 41.036      21.847
 41.046      19.861
 41.056      18.158
 41.066      16.707
 41.076      15.481
 41.086      14.451
 41.096      13.592
 41.106      12.881
 41.116      12.297
 41.126      11.819
 41.136      11.433
 41.146      11.121
 41.156      10.872
 41.166      10.674
 41.176      10.517
 41.186      10.395
 41.196      10.300
 41.206      10.226
 41.216      10.169
 41.226      10.126
 41.236      10.093
 41.246      10.069
 41.256      10.050
 41.266      10.036
 41.276      10.026
 41.286      10.019
 41.296      10.013
 41.306      10.010
 41.316      10.007
 41.326      10.005
 41.336      10.003
 41.346      10.002
 41.356      10.002
 41.366      10.001
 41.376      10.001
 41.386      10.000
 41.396      10.000
 41.406      10.000
 41.416      10.000
 41.426      10.000
 41.436      10.000
 41.447      10.000
 41.457      10.000
 41.467      10.000
 41.477      10.000
 41.487      10.000
 41.497      10.000
 41.507      10.000
 41.517      10.000
 41.527      10.000
 41.537      10.000
 41.547      10.000
 41.557      10.000
 41.567      10.000
 41.577      10.000
 41.587      10.000
 41.597      10.000
 41.607      10.000
 41.617      10.000
 41.627      10.000
 41.637      10.000
 41.647      10.000
 41.657      10.000
 41.667      10.000
 41.677      10.000
 41.687      10.000
 41.697      10.000
 41.707      10.000
 41.717      10.000
 41.727      10.000
 41.737      10.000
 41.747      10.000
 41.757      10.000
 41.767      10.000
 41.777      10.000
 41.787      10.000
 41.797      10.000
 41.807      10.000
 41.817      10.000
 41.827      10.000
 41.837      10.000
 41.847      10.000
 41.857      10.000
 41.867      10.000
 41.877      10.000
 41.887      10.000
 41.897      10.000
 41.907      10.000
 41.917      10.000
 41.927      10.000
 41.937      10.000
 41.947      10.000
 41.957      10.000
 41.967      10.000
 41.977      10.000
 41.987      10.000
 41.997      10.000
 42.008      10.000
 42.018      10.000
 42.028      10.000
 42.038      10.000
 42.048      10.000
 42.058      10.000
 42.068      10.000
 42.078      10.000
 42.088      10.000
 42.098      10.000
 42.108      10.000
 42.118      10.000
 42.128      10.000
 42.138      10.000
 42.148      10.000
 42.158      10.000
 42.168      10.000
 42.178      10.000
 42.188      10.000
 42.198      10.000
 42.208      10.000
 42.218      10.000
 42.228      10.000
 42.238      10.000
 42.248      10.000
 42.258      10.000
 42.268      10.000
 42.278      10.000
 42.288      10.000
 42.298      10.000
 42.308      10.000
 42.318      10.000
 42.328      10.000
 42.338      10.000
 42.348      10.000
 42.358      10.000
 42.368      10.000
 42.378      10.000
 42.388      10.000
 42.398      10.000
 42.408      10.000
 42.418      10.000
 42.428      10.000
 42.438      10.000
 42.448      10.000
 42.458      10.000
 42.468      10.000
 42.478      10.000
 42.488      10.000
 42.498      10.000
 42.508      10.000
 42.518      10.000
 42.528      10.000
 42.538      10.000
 42.548      10.000
 42.558      10.000
 42.569      10.000
 42.579      10.000
 42.589      10.000
 42.599      10.000
 42.609      10.000
 42.619      10.000
 42.629      10.000
 42.639      10.000
 42.649      10.000
 42.659      10.000
 42.669      10.000
 42.679      10.000
 42.689      10.000
 42.699      10.000
 42.709      10.000
 42.719      10.000
 42.729      10.000
 42.739      10.000
 42.749      10.000
 42.759      10.000
 42.769      10.000
 42.779      10.000
 42.789      10.000
 42.799      10.000
 42.809      10.000
 42.819      10.000
 42.829      10.000
 42.839      10.000
 42.849      10.000
 42.859      10.000
 42.869      10.000
 42.879      10.000
 42.889      10.000
 42.899      10.000
 42.909      10.000
 42.919      10.000
 42.929      10.000
 42.939      10.000
 42.949      10.000
 42.959      10.000
 42.969      10.000
 42.979      10.000
 42.989      10.000
 42.999      10.000
 43.009      10.000
 43.019      10.000
 43.029      10.000
 43.039      10.000
 43.049      10.000
 43.059      10.000
 43.069      10.000
 43.079      10.000
 43.089      10.000
 43.099      10.000
 43.109      10.000
 43.120      10.001
 43.130      10.001
 43.140      10.001
 43.150      10.002
 43.160      10.002
 43.170      10.003
 43.180      10.005
 43.190      10.007
 43.200      10.009
 43.210      10.012
 43.220      10.016
 43.230      10.022
 43.240      10.029
 43.250      10.038
 43.260      10.050
 43.270      10.065
 43.280      10.084
 43.290      10.109
 43.300      10.139
 43.310      10.178
 43.320      10.225
 43.330      10.283
 43.340      10.353
 43.350      10.439
 43.360      10.541
 43.370      10.664
 43.380      10.810
 43.390      10.981
 43.400      11.181
 43.410      11.414
 43.420      11.682
 43.430      11.988
 43.440      12.335
 43.450      12.726
 43.460      13.164
 43.470      13.648
 43.480      14.181
 43.490      14.762
 43.500      15.391
 43.510      16.065
 43.520      16.781
 43.530      17.535
 43.540      18.321
 43.550      19.133
 43.560      19.961
 43.570      20.798
 43.580      21.634
 43.590      22.457
 43.600      23.255
 43.610      24.018
 43.620      24.733
 43.630      25.390
 43.640      25.977
 43.650      26.483
 43.660      26.901
 43.670      27.223
 43.681      27.443
 43.691      27.556
 43.701      27.562
 43.711      27.459
 43.721      27.250
 43.731      26.938
 43.741      26.529
 43.751      26.031
 43.761      25.452
 43.771      24.802
 43.781      24.092
 43.791      23.333
 43.801      22.537
 43.811      21.717
 43.821      20.882
 43.831      20.044
 43.841      19.214
 43.851      18.401
 43.861      17.612
 43.871      16.854
 43.881      16.134
 43.891      15.456
 43.901      14.823
 43.911      14.237
 43.921      13.699
 43.931      13.210
 43.941      12.768
 43.951      12.372
 43.961      12.020
 43.971      11.710
 43.981      11.439
 43.991      11.203
 44.001      11.000
 44.011      10.826
 44.021      10.677
 44.031      10.553
 44.041      10.448
 44.051      10.361
 44.061      10.289
 44.071      10.230
 44.081      10.182
 44.091      10.143
 44.101      10.112
 44.111      10.087
 44.121      10.067
 44.131      10.051
 44.141      10.039
 44.151      10.030
 44.161      10.022
 44.171      10.017
 44.181      10.012
 44.191      10.009
 44.201      10.007
 44.211      10.005
 44.221      10.004
 44.232      10.003
 44.242      10.002
 44.252      10.001
 44.262      10.001
 44.272      10.001
 44.282      10.000
 44.292      10.000
 44.302      10.000
 44.312      10.000
 44.322      10.000
 44.332      10.000
 44.342      10.000
 44.352      10.000
 44.362      10.000
 44.372      10.000
 44.382      10.000
 44.392      10.000
 44.402      10.000
 44.412      10.000
 44.422      10.000
 44.432      10.000
 44.442      10.000
 44.452      10.000
 44.462      10.000
 44.472      10.000
 44.482      10.000
 44.492      10.000
 44.502      10.000
 44.512      10.000
 44.522      10.000
 44.532      10.000
 44.542      10.000
 44.552      10.000
 44.562      10.000
 44.572      10.000
 44.582      10.000
 44.592      10.000
 44.602      10.000
 44.612      10.000
 44.622      10.000
 44.632      10.000
 44.642      10.000
 44.652      10.000
 44.662      10.000
 44.672      10.000
 44.682      10.000
 44.692      10.000
 44.702      10.000
 44.712      10.000
 44.722      10.000
 44.732      10.000
 44.742      10.000
 44.752      10.000
 44.762      10.000
 44.772      10.000
 44.782      10.000
 44.793      10.000
 44.803      10.000
 44.813      10.000
 44.823      10.000
 44.833      10.000
 44.843      10.000
 44.853      10.000
 44.863      10.000
 44.873      10.000
 44.883      10.000
 44.893      10.000
 44.903      10.000
 44.913      10.000
 44.923      10.000
 44.933      10.000
 44.943      10.000
 44.953      10.000
 44.963      10.000
 44.973      10.000
 44.983      10.000
 44.993      10.000
 45.003      10.000
 45.013      10.000
 45.023      10.000
 45.033      10.000
 45.043      10.000
 45.053      10.000
 45.063      10.000
 45.073      10.000
 45.083      10.000
 45.093      10.000
 45.103      10.000
 45.113      10.000
 45.123      10.000
 45.133      10.000
 45.143      10.000
 45.153      10.000
 45.163      10.000
 45.173      10.000
 45.183      10.000
 45.193      10.000
 45.203      10.000
 45.213      10.000
 45.223      10.000
 45.233      10.000
 45.243      10.000
 45.253      10.000
 45.263      10.000
 45.273      10.000
 45.283      10.000
 45.293      10.000
 45.303      10.000
 45.313      10.000
 45.323      10.000
 45.333      10.000
 45.344      10.000
 45.354      10.000
 45.364      10.000
 45.374      10.000
 45.384      10.000
 45.394      10.000
 45.404      10.000
 45.414      10.000
 45.424      10.000
 45.434      10.000
 45.444      10.000
 45.454      10.000
 45.464      10.000
 45.474      10.000
 45.484      10.000
 45.494      10.000
 45.504      10.000
 45.514      10.000
 45.524      10.000
 45.534      10.000
 45.544      10.000
 45.554      10.000
 45.564      10.000
 45.574      10.000
 45.584      10.000
 45.594      10.000
 45.604      10.000
 45.614      10.000
 45.624      10.000
 45.634      10.000
 45.644      10.000
 45.654      10.000
 45.664      10.000
 45.674      10.000
 45.684      10.000
 45.694      10.000
 45.704      10.000
 45.714      10.000
 45.724      10.000
 45.734      10.000
 45.744      10.000
 45.754      10.000
 45.764      10.000
 45.774      10.000
 45.784      10.000
 45.794      10.000
 45.804      10.000
 45.814      10.000
 45.824      10.000
 45.834      10.000
 45.844      10.000
 45.854      10.000
 45.864      10.000
 45.874      10.001
 45.884      10.001
 45.894      10.001
 45.905      10.002
 45.915      10.003
 45.925      10.004
 45.935      10.005
 45.945      10.008
 45.955      10.011
 45.965      10.015
 45.975      10.020
 45.985      10.028
 45.995      10.038
 46.005      10.052
 46.015      10.070
 46.025      10.094
 46.035      10.126
 46.045      10.167
 46.055      10.220
 46.065      10.288
 46.075      10.376
 46.085      10.486
 46.095      10.625
 46.105      10.798
 46.115      11.014
 46.125      11.280
 46.135      11.605
 46.145      12.001
 46.155      12.479
 46.165      13.052
 46.175      13.735
 46.185      14.542
 46.195      15.490
 46.205      16.595
 46.215      17.873
 46.225      19.341
 46.235      21.015
 46.245      22.908
 46.255      25.033
 46.265      27.400
 46.275      30.015
 46.285      32.882
 46.295      35.999
 46.305      39.358
 46.315      42.946
 46.325      46.745
 46.335      50.729
 46.345      54.867
 46.355      59.123
 46.365      63.448
 46.375      67.796
 46.385      72.112
 46.395      76.340
 46.405      80.418
 46.415      84.287
 46.425      87.886
 46.435      91.155
 46.445      94.039
 46.456      96.490
 46.466      98.464
 46.476      99.925
 46.486     100.846
 46.496     101.212
 46.506     101.014
 46.516     100.257
 46.526      98.954
 46.536      97.130
 46.546      94.816
 46.556      92.056
 46.566      88.896
 46.576      85.390
 46.586      81.596
 46.596      77.574
 46.606      73.385
 46.616      69.087
 46.626      64.743
 46.636      60.405
 46.646      56.125
 46.656      51.949
 46.666      47.915
 46.676      44.056
 46.686      40.403
 46.696      36.975
 46.706      33.785
 46.716      30.844
 46.726      28.153
 46.736      25.712
 46.746      23.516
 46.756      21.555
 46.766      19.818
 46.776      18.290
 46.786      16.957
 46.796      15.802
 46.806      14.809
 46.816      13.962
 46.826      13.244
 46.836      12.639
 46.846      12.134
 46.856      11.715
 46.866      11.370
 46.876      11.087
 46.886      10.858
 46.896      10.672
 46.906      10.524
 46.916      10.406
 46.926      10.312
 46.936      10.239
 46.946      10.182
 46.956      10.137
 46.966      10.103
 46.976      10.077
 46.986      10.057
 46.996      10.042
 47.006      10.031
 47.017      10.022
 47.027      10.016
 47.037      10.012
 47.047      10.008
 47.057      10.006
 47.067      10.004
 47.077      10.003
 47.087      10.002
 47.097      10.001
 47.107      10.001
 47.117      10.001
 47.127      10.000
 47.137      10.000
 47.147      10.000
 47.157      10.000
 47.167      10.000
 47.177      10.000
 47.187      10.000
 47.197      10.000
 47.207      10.000
 47.217      10.000
 47.227      10.000
 47.237      10.000
 47.247      10.000
 47.257      10.000
 47.267      10.000
 47.277      10.000
 47.287      10.000
 47.297      10.000
 47.307      10.000
 47.317      10.000
 47.327      10.000
 47.337      10.000
 47.347      10.000
 47.357      10.000
 47.367      10.000
 47.377      10.000
 47.387      10.000
 47.397      10.000
 47.407      10.000
 47.417      10.000
 47.427      10.000
 47.437      10.000
 47.447      10.000
 47.457      10.000
 47.467      10.000
 47.477      10.000
 47.487      10.000
 47.497      10.000
 47.507      10.000
 47.517      10.000
 47.527      10.000
 47.537      10.000
 47.547      10.000
 47.557      10.000
 47.568      10.000
 47.578      10.000
 47.588      10.000
 47.598      10.000
 47.608      10.000
 47.618      10.000
 47.628      10.000
 47.638      10.000
 47.648      10.000
 47.658      10.000
 47.668      10.000
 47.678      10.000
 47.688      10.000
 47.698      10.000
 47.708      10.000
 47.718      10.000
 47.728      10.000
 47.738      10.000
 47.748      10.000
 47.758      10.000
 47.768      10.000
 47.778      10.000
 47.788      10.000
 47.798      10.000
 47.808      10.000
 47.818      10.000
 47.828      10.000
 47.838      10.000
 47.848      10.000
 47.858      10.000
 47.868      10.000
 47.878      10.000
 47.888      10.000
 47.898      10.000
 47.908      10.000
 47.918      10.000
 47.928      10.000
 47.938      10.000
 47.948      10.000
 47.958      10.000
 47.968      10.000
 47.978      10.000
 47.988      10.000
 47.998      10.000
 48.008      10.000
 48.018      10.000
 48.028      10.000
 48.038      10.000
 48.048      10.000
 48.058      10.000
 48.068      10.000
 48.078      10.000
 48.088      10.000
 48.098      10.000
 48.108      10.000
 48.118      10.000
 48.129      10.000
 48.139      10.000
 48.149      10.000
 48.159      10.000
 48.169      10.000
 48.179      10.000
 48.189      10.000
 48.199      10.000
 48.209      10.000
 48.219      10.000
 48.229      10.000
 48.239      10.000
 48.249      10.000
 48.259      10.000
 48.269      10.000
 48.279      10.000
 48.289      10.000
 48.299      10.000
 48.309      10.000
 48.319      10.000
 48.329      10.000
 48.339      10.000
 48.349      10.000
 48.359      10.000
 48.369      10.000
 48.379      10.000
 48.389      10.000
 48.399      10.000
 48.409      10.000
 48.419      10.000
 48.429      10.000
 48.439      10.000
 48.449      10.000
 48.459      10.000
 48.469      10.000
 48.479      10.000
 48.489      10.000
 48.499      10.000
 48.509      10.000
 48.519      10.000
 48.529      10.000
 48.539      10.000
 48.549      10.000
 48.559      10.000
 48.569      10.001
 48.579      10.001
 48.589      10.001
 48.599      10.002
 48.609      10.003
 48.619      10.004
 48.629      10.006
 48.639      10.008
 48.649      10.011
 48.659      10.015
 48.669      10.021
 48.679      10.029
 48.690      10.039
 48.700      10.052
 48.710      10.070
 48.720      10.093
 48.730      10.122
 48.740      10.160
 48.750      10.209
 48.760      10.270
 48.770      10.348
 48.780      10.445
 48.790      10.566
 48.800      10.715
 48.810      10.898
 48.820      11.120
 48.830      11.389
 48.840      11.713
 48.850      12.098
 48.860      12.554
 48.870      13.091
 48.880      13.717
 48.890      14.442
 48.900      15.276
 48.910      16.228
 48.920      17.307
 48.930      18.519
 48.940      19.871
 48.950      21.368
 48.960      23.011
 48.970      24.799
 48.980      26.729
 48.990      28.795
 49.000      30.985
 49.010      33.287
 49.020      35.681
 49.030      38.146
 49.040      40.659
 49.050      43.189
 49.060      45.708
 49.070      48.181
 49.080      50.573
 49.090      52.849
 49.100      54.974
 49.110      56.913
 49.120      58.634
 49.130      60.108
 49.140      61.308
 49.150      62.213
 49.160      62.806
 49.170      63.077
 49.180      63.021
 49.190      62.638
 49.200      61.935
 49.210      60.926
 49.220      59.629
 49.230      58.067
 49.241      56.267
 49.251      54.260
 49.261      52.078
 49.271      49.758
 49.281      47.334
 49.291      44.842
 49.301      42.316
 49.311      39.788
 49.321      37.289
 49.331      34.845
 49.341      32.480
 49.351      30.216
 49.361      28.067
 49.371      26.047
 49.381      24.166
 49.391      22.427
 49.401      20.835
 49.411      19.388
 49.421      18.085
 49.431      16.920
 49.441      15.886
 49.451      14.975
 49.461      14.180
 49.471      13.490
 49.481      12.896
 49.491      12.388
 49.501      11.958
 49.511      11.594
 49.521      11.291
 49.531      11.038
 49.541      10.830
 49.551      10.660
 49.561      10.521
 49.571      10.409
 49.581      10.319
 49.591      10.247
 49.601      10.191
 49.611      10.146
 49.621      10.111
 49.631      10.084
 49.641      10.063
 49.651      10.047
 49.661      10.035
 49.671      10.026
 49.681      10.019
 49.691      10.014
 49.701      10.010
 49.711      10.007
 49.721      10.005
 49.731      10.004
 49.741      10.003
 49.751      10.002
 49.761      10.001
 49.771      10.001
 49.781      10.001
 49.791      10.000
 49.802      10.000
 49.812      10.000
 49.822      10.000
 49.832      10.000
 49.842      10.000
 49.852      10.000
 49.862      10.000
 49.872      10.000
 49.882      10.000
 49.892      10.000
 49.902      10.000
 49.912      10.000
 49.922      10.000
 49.932      10.000
 49.942      10.000
 49.952      10.000
 49.962      10.000
 49.972      10.000
 49.982      10.000
 49.992      10.000
 50.002      10.000
 50.012      10.000
 50.022      10.000
 50.032      10.000
 50.042      10.000
 50.052      10.000
 50.062      10.000
 50.072      10.000
 50.082      10.000
 50.092      10.000
 50.102      10.000
 50.112      10.000
 50.122      10.000
 50.132      10.000
 50.142      10.000
 50.152      10.000
 50.162      10.000
 50.172      10.000
 50.182      10.000
 50.192      10.000
 50.202      10.000
 50.212      10.000
 50.222      10.000
 50.232      10.000
 50.242      10.000
 50.252      10.000
 50.262      10.000
 50.272      10.000
 50.282      10.000
 50.292      10.000
 50.302      10.000
 50.312      10.000
 50.322      10.000
 50.332      10.000
 50.342      10.000
 50.353      10.000
 50.363      10.000
 50.373      10.000
 50.383      10.000
 50.393      10.000
 50.403      10.000
 50.413      10.000
 50.423      10.000
 50.433      10.000
 50.443      10.000
 50.453      10.000
 50.463      10.000
 50.473      10.000
 50.483      10.000
 50.493      10.000
 50.503      10.000
 50.513      10.000
 50.523      10.000
 50.533      10.000
 50.543      10.000
 50.553      10.000
 50.563      10.000
 50.573      10.000
 50.583      10.000
 50.593      10.000
 50.603      10.000
 50.613      10.000
 50.623      10.000
 50.633      10.000
 50.643      10.000
 50.653      10.000
 50.663      10.000
 50.673      10.000
 50.683      10.000
 50.693      10.000
 50.703      10.000
 50.713      10.000
 50.723      10.000
 50.733      10.000
 50.743      10.000
 50.753      10.000
 50.763      10.000
 50.773      10.000
 50.783      10.000
 50.793      10.000
 50.803      10.000
 50.813      10.000
 50.823      10.000
 50.833      10.000
 50.843      10.000
 50.853      10.000
 50.863      10.000
 50.873      10.000
 50.883      10.000
 50.893      10.000
 50.903      10.000
 50.914      10.000
 50.924      10.000
 50.934      10.000
 50.944      10.000
 50.954      10.000
 50.964      10.000
 50.974      10.000
 50.984      10.000
 50.994      10.000
 51.004      10.000
 51.014      10.000
 51.024      10.000
 51.034      10.000
 51.044      10.000
 51.054      10.000
 51.064      10.000
 51.074      10.000
 51.084      10.000
 51.094      10.000
 51.104      10.000
 51.114      10.000
 51.124      10.000
 51.134      10.000
 51.144      10.001
 51.154      10.001
 51.164      10.001
 51.174      10.002
 51.184      10.003
 51.194      10.004
 51.204      10.005
 51.214      10.008
 51.224      10.011
 51.234      10.014
 51.244      10.020
 51.254      10.027
 51.264      10.036
 51.274      10.049
 51.284      10.065
 51.294      10.086
 51.304      10.114
 51.314      10.149
 51.324      10.194
 51.334      10.250
 51.344      10.322
 51.354      10.411
 51.364      10.522
 51.374      10.659
 51.384      10.827
 51.394      11.030
 51.404      11.276
 51.414      11.571
 51.424      11.923
 51.434      12.338
 51.444      12.825
 51.454      13.393
 51.465      14.050
 51.475      14.805
 51.485      15.665
 51.495      16.637
 51.505      17.729
 51.515      18.944
 51.525      20.287
 51.535      21.759
 51.545      23.358
 51.555      25.082
 51.565      26.922
 51.575      28.870
 51.585      30.913
 51.595      33.034
 51.605      35.215
 51.615      37.431
 51.625      39.658
 51.635      41.868
 51.645      44.031
 51.655      46.118
 51.665      48.096
 51.675      49.935
 51.685      51.605
 51.695      53.077
 51.705      54.326
 51.715      55.330
 51.725      56.072
 51.735      56.536
 51.745      56.716
 51.755      56.607
 51.765      56.212
 51.775      55.538
 51.785      54.598
 51.795      53.406
 51.805      51.987
 51.815      50.364
 51.825      48.564
 51.835      46.618
 51.845      44.555
 51.855      42.407
 51.865      40.206
 51.875      37.980
 51.885      35.759
 51.895      33.568
 51.905      31.431
 51.915      29.366
 51.925      27.393
 51.935      25.525
 51.945      23.772
 51.955      22.142
 51.965      20.639
 51.975      19.263
 51.985      18.017
 51.995      16.895
 52.005      15.894
 52.015      15.007
 52.026      14.227
 52.036      13.547
 52.046      12.958
 52.056      12.451
 52.066      12.019
 52.076      11.653
 52.086      11.344
 52.096      11.087
 52.106      10.873
 52.116      10.697
 52.126      10.554
 52.136      10.437
 52.146      10.342
 52.156      10.267
 52.166      10.206
 52.176      10.159
 52.186      10.121
 52.196      10.092
 52.206      10.070
 52.216      10.052
 52.226      10.039
 52.236      10.029
 52.246      10.021
 52.256      10.016
 52.266      10.011
 52.276      10.008
 52.286      10.006
 52.296      10.004
 52.306      10.003
 52.316      10.002
 52.326      10.001
 52.336      10.001
 52.346      10.001
 52.356      10.000
 52.366      10.000
 52.376      10.000
 52.386      10.000
 52.396      10.000
 52.406      10.000
 52.416      10.000
 52.426      10.000
 52.436      10.000
 52.446      10.000
 52.456      10.000
 52.466      10.000
 52.476      10.000
 52.486      10.000
 52.496      10.000
 52.506      10.000
 52.516      10.000
 52.526      10.000
 52.536      10.000
 52.546      10.000
 52.556      10.000
 52.566      10.000
 52.576      10.000
 52.587      10.000
 52.597      10.000
 52.607      10.000
 52.617      10.000
 52.627      10.000
 52.637      10.000
 52.647      10.000
 52.657      10.000
 52.667      10.000
 52.677      10.000
 52.687      10.000
 52.697      10.000
 52.707      10.000
 52.717      10.000
 52.727      10.000
 52.737      10.000
 52.747      10.000
 52.757      10.000
 52.767      10.000
 52.777      10.000
 52.787      10.000
 52.797      10.000
 52.807      10.000
 52.817      10.000
 52.827      10.000
 52.837      10.000
 52.847      10.000
 52.857      10.000
 52.867      10.000
 52.877      10.000
 52.887      10.000
 52.897      10.000
 52.907      10.000
 52.917      10.000
 52.927      10.000
 52.937      10.000
 52.947      10.000
 52.957      10.000
 52.967      10.000
 52.977      10.000
 52.987      10.000
 52.997      10.000
 53.007      10.000
 53.017      10.000
 53.027      10.000
 53.037      10.000
 53.047      10.000
 53.057      10.000
 53.067      10.000
 53.077      10.000
 53.087      10.000
 53.097      10.000
 53.107      10.000
 53.117      10.000
 53.127      10.000
 53.138      10.000
 53.148      10.000
 53.158      10.000
 53.168      10.000
 53.178      10.000
 53.188      10.000
 53.198      10.000
 53.208      10.000
 53.218      10.000
 53.228      10.000
 53.238      10.000
 53.248      10.000
 53.258      10.000
 53.268      10.000
 53.278      10.000
 53.288      10.000
 53.298      10.000
 53.308      10.000
 53.318      10.000
 53.328      10.000
 53.338      10.000
 53.348      10.000
 53.358      10.000
 53.368      10.000
 53.378      10.000
 53.388      10.000
 53.398      10.000
 53.408      10.000
 53.418      10.000
 53.428      10.000
 53.438      10.000
 53.448      10.000
 53.458      10.000
 53.468      10.000
 53.478      10.000
 53.488      10.000
 53.498      10.000
 53.508      10.000
 53.518      10.000
 53.528      10.000
 53.538      10.000
 53.548      10.000
 53.558      10.000
 53.568      10.000
 53.578      10.000
 53.588      10.000
 53.598      10.000
 53.608      10.000
 53.618      10.000
 53.628      10.001
 53.638      10.001
 53.648      10.001
 53.658      10.002
 53.668      10.002
 53.678      10.003
 53.688      10.005
 53.699      10.007
 53.709      10.009
 53.719      10.013
 53.729      10.017
 53.739      10.024
 53.749      10.032
 53.759      10.043
 53.769      10.058
 53.779      10.076
 53.789      10.101
 53.799      10.132
 53.809      10.171
 53.819      10.222
 53.829      10.285
 53.839      10.364
 53.849      10.462
 53.859      10.583
 53.869      10.732
 53.879      10.912
 53.889      11.130
 53.899      11.391
 53.909      11.702
 53.919      12.069
 53.929      12.501
 53.939      13.004
 53.949      13.585
 53.959      14.253
 53.969      15.015
 53.979      15.876
 53.989      16.842
 53.999      17.919
 54.009      19.108
 54.019      20.411
 54.029      21.827
 54.039      23.353
 54.049      24.984
 54.059      26.709
 54.069      28.519
 54.079      30.398
 54.089      32.329
 54.099      34.292
 54.109      36.264
 54.119      38.222
 54.129      40.140
 54.139      41.989
 54.149      43.742
 54.159      45.371
 54.169      46.851
 54.179      48.156
 54.189      49.264
 54.199      50.154
 54.209      50.812
 54.219      51.225
 54.229      51.385
 54.239      51.290
 54.250      50.941
 54.260      50.345
 54.270      49.513
 54.280      48.459
 54.290      47.202
 54.300      45.765
 54.310      44.171
 54.320      42.447
 54.330      40.620
 54.340      38.718
 54.350      36.768
 54.360      34.797
 54.370      32.829
 54.380      30.887
 54.390      28.993
 54.400      27.165
 54.410      25.416
 54.420      23.761
 54.430      22.208
 54.440      20.762
 54.450      19.430
 54.460      18.212
 54.470      17.107
 54.480      16.113
 54.490      15.225
 54.500      14.439
 54.510      13.748
 54.520      13.145
 54.530      12.622
 54.540      12.173
 54.550      11.790
 54.560      11.465
 54.570      11.192
 54.580      10.964
 54.590      10.775
 54.600      10.619
 54.610      10.491
 54.620      10.387
 54.630      10.304
 54.640      10.236
 54.650      10.183
 54.660      10.141
 54.670      10.108
 54.680      10.082
 54.690      10.062
 54.700      10.046
 54.710      10.035
 54.720      10.026
 54.730      10.019
 54.740      10.014
 54.750      10.010
 54.760      10.007
 54.770      10.005
 54.780      10.004
 54.790      10.003
 54.800      10.002
 54.811      10.001
 54.821      10.001
 54.831      10.001
 54.841      10.000
 54.851      10.000
 54.861      10.000
 54.871      10.000
 54.881      10.000
 54.891      10.000
 54.901      10.000
 54.911      10.000
 54.921      10.000
 54.931      10.000
 54.941      10.000
 54.951      10.000
 54.961      10.000
 54.971      10.000
 54.981      10.000
 54.991      10.000
 55.001      10.000
 55.011      10.000
 55.021      10.000
 55.031      10.000
 55.041      10.000
 55.051      10.000
 55.061      10.000
 55.071      10.000
 55.081      10.000
 55.091      10.000
 55.101      10.000
 55.111      10.000
 55.121      10.000
 55.131      10.000
 55.141      10.000
 55.151      10.000
 55.161      10.000
 55.171      10.000
 55.181      10.000
 55.191      10.000
 55.201      10.000
 55.211      10.000
 55.221      10.000
 55.231      10.000
 55.241      10.000
 55.251      10.000
 55.261      10.000
 55.271      10.000
 55.281      10.000
 55.291      10.000
 55.301      10.000
 55.311      10.000
 55.321      10.000
 55.331      10.000
 55.341      10.000
 55.351      10.000
 55.362      10.000
 55.372      10.000
 55.382      10.000
 55.392      10.000
 55.402      10.000
 55.412      10.000
 55.422      10.000
 55.432      10.000
 55.442      10.000
 55.452      10.000
 55.462      10.000
 55.472      10.000
 55.482      10.000
 55.492      10.000
 55.502      10.000
 55.512      10.000
 55.522      10.000
 55.532      10.000
 55.542      10.000
 55.552      10.000
 55.562      10.000
 55.572      10.000
 55.582      10.000
 55.592      10.000
 55.602      10.000
 55.612      10.000
 55.622      10.000
 55.632      10.000
 55.642      10.000
 55.652      10.000
 55.662      10.000
 55.672      10.000
 55.682      10.000
 55.692      10.000
 55.702      10.000
 55.712      10.000
 55.722      10.000
 55.732      10.000
 55.742      10.000
 55.752      10.000
 55.762      10.000
 55.772      10.000
 55.782      10.000
 55.792      10.000
 55.802      10.000
 55.812      10.000
 55.822      10.000
 55.832      10.000
 55.842      10.000
 55.852      10.000
 55.862      10.000
 55.872      10.000
 55.882      10.000
 55.892      10.000
 55.902      10.000
 55.912      10.000
 55.923      10.000
 55.933      10.000
 55.943      10.000
 55.953      10.000
 55.963      10.000
 55.973      10.000
 55.983      10.000
 55.993      10.000
 56.003      10.000
 56.013      10.001
 56.023      10.001
 56.033      10.001
 56.043      10.002
 56.053      10.003
 56.063      10.004
 56.073      10.006
 56.083      10.008
 56.093      10.011
 56.103      10.015
 56.113      10.021
 56.123      10.029
 56.133      10.040
 56.143      10.055
 56.153      10.074
 56.163      10.100
 56.173      10.134
 56.183      10.178
 56.193      10.235
 56.203      10.309
 56.213      10.404
 56.223      10.524
 56.233      10.675
 56.243      10.866
 56.253      11.102
 56.263      11.395
 56.273      11.755
 56.283      12.194
 56.293      12.726
 56.303      13.367
 56.313      14.131
 56.323      15.039
 56.333      16.108
 56.343      17.358
 56.353      18.809
 56.363      20.481
 56.373      22.394
 56.383      24.565
 56.393      27.012
 56.403      29.748
 56.413      32.781
 56.423      36.119
 56.433      39.760
 56.443      43.701
 56.453      47.928
 56.463      52.424
 56.474      57.158
 56.484      62.097
 56.494      67.199
 56.504      72.414
 56.514      77.684
 56.524      82.949
 56.534      88.136
 56.544      93.177
 56.554      97.997
 56.564     102.522
 56.574     106.680
 56.584     110.403
 56.594     113.627
 56.604     116.295
 56.614     118.359
 56.624     119.782
 56.634     120.538
 56.644     120.614
 56.654     120.007
 56.664     118.729
 56.674     116.803
 56.684     114.265
 56.694     111.160
 56.704     107.542
 56.714     103.473
 56.724      99.022
 56.734      94.261
 56.744      89.263
 56.754      84.102
 56.764      78.849
 56.774      73.575
 56.784      68.341
 56.794      63.210
 56.804      58.231
 56.814      53.448
 56.824      48.898
 56.834      44.610
 56.844      40.604
 56.854      36.896
 56.864      33.491
 56.874      30.391
 56.884      27.591
 56.894      25.082
 56.904      22.850
 56.914      20.882
 56.924      19.158
 56.934      17.660
 56.944      16.367
 56.954      15.260
 56.964      14.319
 56.974      13.524
 56.984      12.858
 56.994      12.303
 57.004      11.845
 57.014      11.469
 57.024      11.162
 57.035      10.913
 57.045      10.714
 57.055      10.554
 57.065      10.428
 57.075      10.328
 57.085      10.250
 57.095      10.190
 57.105      10.143
 57.115      10.107
 57.125      10.079
 57.135      10.059
 57.145      10.043
 57.155      10.031
 57.165      10.023
 57.175      10.016
 57.185      10.012
 57.195      10.008
 57.205      10.006
 57.215      10.004
 57.225      10.003
 57.235      10.002
 57.245      10.001
 57.255      10.001
 57.265      10.001
 57.275      10.000
 57.285      10.000
 57.295      10.000
 57.305      10.000
 57.315      10.000
 57.325      10.000
 57.335      10.000
 57.345      10.000
 57.355      10.000
 57.365      10.000
 57.375      10.000
 57.385      10.000
 57.395      10.000
 57.405      10.000
 57.415      10.000
 57.425      10.000
 57.435      10.000
 57.445      10.000
 57.455      10.000
 57.465      10.000
 57.475      10.000
 57.485      10.000
 57.495      10.000
 57.505      10.000
 57.515      10.000
 57.525      10.000
 57.535      10.000
 57.545      10.000
 57.555      10.000
 57.565      10.000
 57.575      10.000
 57.585      10.000
 57.596      10.000
 57.606      10.000
 57.616      10.000
 57.626      10.000
 57.636      10.000
 57.646      10.000
 57.656      10.000
 57.666      10.000
 57.676      10.000
 57.686      10.000
 57.696      10.000
 57.706      10.000
 57.716      10.000
 57.726      10.000
 57.736      10.000
 57.746      10.000
 57.756      10.000
 57.766      10.000
 57.776      10.000
 57.786      10.000
 57.796      10.000
 57.806      10.000
 57.816      10.000
 57.826      10.000
 57.836      10.000
 57.846      10.000
 57.856      10.000
 57.866      10.000
 57.876      10.000
 57.886      10.000
 57.896      10.000
 57.906      10.000
 57.916      10.000
 57.926      10.000
 57.936      10.000
 57.946      10.000
 57.956      10.000
 57.966      10.000
 57.976      10.000
 57.986      10.000
 57.996      10.000
 58.006      10.000
 58.016      10.000
 58.026      10.000
 58.036      10.000
 58.046      10.000
 58.056      10.000
 58.066      10.000
 58.076      10.000
 58.086      10.000
 58.096      10.000
 58.106      10.000
 58.116      10.000
 58.126      10.000
 58.136      10.000
 58.147      10.000
 58.157      10.000
 58.167      10.000
 58.177      10.000
 58.187      10.000
 58.197      10.000
 58.207      10.000
 58.217      10.000
 58.227      10.000
 58.237      10.000
 58.247      10.000
 58.257      10.000
 58.267      10.000
 58.277      10.000
 58.287      10.000
 58.297      10.000
 58.307      10.000
 58.317      10.000
 58.327      10.000
 58.337      10.000
 58.347      10.000
 58.357      10.000
 58.367      10.000
 58.377      10.000
 58.387      10.000
 58.397      10.000
 58.407      10.000
 58.417      10.000
 58.427      10.000
 58.437      10.000
 58.447      10.000
 58.457      10.000
 58.467      10.000
 58.477      10.000
 58.487      10.000
 58.497      10.000
 58.507      10.000
 58.517      10.000
 58.527      10.000
 58.537      10.000
 58.547      10.000
 58.557      10.000
 58.567      10.000
 58.577      10.000
 58.587      10.000
 58.597      10.000
 58.607      10.000
 58.617      10.000
 58.627      10.000
 58.637      10.000
 58.647      10.000
 58.657      10.000
 58.667      10.000
 58.677      10.000
 58.687      10.000
 58.697      10.000
 58.708      10.000
 58.718      10.000
 58.728      10.000
 58.738      10.000
 58.748      10.000
 58.758      10.000
 58.768      10.000
 58.778      10.000
 58.788      10.000
 58.798      10.000
 58.808      10.000
 58.818      10.000
 58.828      10.000
 58.838      10.000
 58.848      10.000
 58.858      10.000
 58.868      10.000
 58.878      10.000
 58.888      10.000
 58.898      10.000
 58.908      10.000
 58.918      10.000
 58.928      10.000
 58.938      10.000
 58.948      10.000
 58.958      10.000
 58.968      10.000
 58.978      10.000
 58.988      10.000
 58.998      10.000
 59.008      10.000
 59.018      10.000
 59.028      10.000
 59.038      10.000
 59.048      10.000
 59.058      10.000
 59.068      10.000
 59.078      10.000
 59.088      10.000
 59.098      10.000
 59.108      10.000
 59.118      10.000
 59.128      10.000
 59.138      10.000
 59.148      10.000
 59.158      10.000
 59.168      10.000
 59.178      10.000
 59.188      10.000
 59.198      10.000
 59.208      10.000
 59.218      10.000
 59.228      10.000
 59.238      10.000
 59.248      10.000
 59.259      10.000
 59.269      10.000
 59.279      10.000
 59.289      10.000
 59.299      10.000
 59.309      10.000
 59.319      10.000
 59.329      10.000
 59.339      10.000
 59.349      10.000
 59.359      10.000
 59.369      10.000
 59.379      10.000
 59.389      10.000
 59.399      10.000
 59.409      10.000
 59.419      10.000
 59.429      10.000
 59.439      10.000
 59.449      10.000
 59.459      10.000
 59.469      10.000
 59.479      10.000
 59.489      10.000
 59.499      10.000
 59.509      10.000
 59.519      10.000
 59.529      10.000
 59.539      10.000
 59.549      10.000
 59.559      10.000
 59.569      10.000
 59.579      10.000
 59.589      10.000
 59.599      10.000
 59.609      10.000
 59.619      10.000
 59.629      10.000
 59.639      10.000
 59.649      10.000
 59.659      10.000
 59.669      10.000
 59.679      10.000
 59.689      10.000
 59.699      10.000
 59.709      10.000
 59.719      10.000
 59.729      10.000
 59.739      10.000
 59.749      10.000
 59.759      10.000
 59.769      10.000
 59.779      10.000
 59.789      10.000
 59.799      10.000
 59.809      10.000
 59.820      10.000
 59.830      10.000
 59.840      10.000
 59.850      10.000
 59.860      10.000
 59.870      10.000
 59.880      10.000
 59.890      10.000
 59.900      10.000
 59.910      10.000
 59.920      10.000
 59.930      10.000
 59.940      10.000
 59.950      10.000
 59.960      10.000
 59.970      10.000
 59.980      10.000
 59.990      10.000
 60.000      10.000
 60.010      10.000
 60.020      10.000
 60.030      10.000
 60.040      10.000
 60.050      10.000
 60.060      10.000
 60.070      10.000
 60.080      10.000
 60.090      10.000
 60.100      10.000
 60.110      10.000
 60.120      10.000
 60.130      10.000
 60.140      10.000
 60.150      10.000
 60.160      10.000
 60.170      10.000
 60.180      10.000
 60.190      10.000
 60.200      10.000
 60.210      10.000
 60.220      10.000
 60.230      10.000
 60.240      10.000
 60.250      10.000
 60.260      10.000
 60.270      10.000
 60.280      10.000
 60.290      10.000
 60.300      10.000
 60.310      10.000
 60.320      10.000
 60.330      10.000
 60.340      10.000
 60.350      10.000
 60.360      10.000
 60.371      10.000
 60.381      10.000
 60.391      10.000
 60.401      10.000
 60.411      10.000
 60.421      10.000
 60.431      10.000
 60.441      10.000
 60.451      10.000
 60.461      10.000
 60.471      10.000
 60.481      10.000
 60.491      10.000
 60.501      10.000
 60.511      10.000
 60.521      10.000
 60.531      10.000
 60.541      10.000
 60.551      10.000
 60.561      10.000
 60.571      10.000
 60.581      10.000
 60.591      10.000
 60.601      10.000
 60.611      10.000
 60.621      10.000
 60.631      10.000
 60.641      10.000
 60.651      10.000
 60.661      10.001
 60.671      10.001
 60.681      10.001
 60.691      10.002
 60.701      10.003
 60.711      10.004
 60.721      10.005
 60.731      10.007
 60.741      10.010
 60.751      10.014
 60.761      10.019
 60.771      10.026
 60.781      10.036
 60.791      10.048
 60.801      10.065
 60.811      10.086
 60.821      10.114
 60.831      10.151
 60.841      10.197
 60.851      10.256
 60.861      10.331
 60.871      10.425
 60.881      10.543
 60.891      10.689
 60.901      10.868
 60.911      11.088
 60.921      11.355
 60.932      11.677
 60.942      12.062
 60.952      12.521
 60.962      13.063
 60.972      13.699
 60.982      14.438
 60.992      15.293
 61.002      16.273
 61.012      17.390
 61.022      18.651
 61.032      20.064
 61.042      21.637
 61.052      23.373
 61.062      25.272
 61.072      27.335
 61.082      29.554
 61.092      31.922
 61.102      34.424
 61.112      37.044
 61.122      39.761
 61.132      42.549
 61.142      45.380
 61.152      48.219
 61.162      51.031
 61.172      53.778
 61.182      56.422
 61.192      58.922
 61.202      61.239
 61.212      63.334
 61.222      65.173
 61.232      66.724
 61.242      67.958
 61.252      68.855
 61.262      69.397
 61.272      69.574
 61.282      69.384
 61.292      68.829
 61.302      67.920
 61.312      66.674
 61.322      65.113
 61.332      63.264
 61.342      61.160
 61.352      58.836
 61.362      56.330
 61.372      53.683
 61.382      50.932
 61.392      48.118
 61.402      45.279
 61.412      42.450
 61.422      39.664
 61.432      36.950
 61.442      34.333
 61.452      31.835
 61.462      29.472
 61.472      27.259
 61.483      25.202
 61.493      23.308
 61.503      21.579
 61.513      20.012
 61.523      18.603
 61.533      17.347
 61.543      16.236
 61.553      15.260
 61.563      14.410
 61.573      13.674
 61.583      13.042
 61.593      12.504
 61.603      12.048
 61.613      11.664
 61.623      11.344
 61.633      11.079
 61.643      10.861
 61.653      10.683
 61.663      10.538
 61.673      10.421
 61.683      10.328
 61.693      10.254
 61.703      10.195
 61.713      10.149
 61.723      10.113
 61.733      10.085
 61.743      10.064
 61.753      10.048
 61.763      10.035
 61.773      10.026
 61.783      10.019
 61.793      10.014
 61.803      10.010
 61.813      10.007
 61.823      10.005
 61.833      10.004
 61.843      10.003
 61.853      10.002
 61.863      10.001
 61.873      10.001
 61.883      10.001
 61.893      10.000
 61.903      10.000
 61.913      10.000
 61.923      10.000
 61.933      10.000
 61.943      10.000
 61.953      10.000
 61.963      10.000
 61.973      10.000
 61.983      10.000
 61.993      10.000
 62.003      10.000
 62.013      10.000
 62.023      10.000
 62.033      10.000
 62.044      10.000
 62.054      10.000
 62.064      10.000
 62.074      10.000
 62.084      10.000
 62.094      10.000
 62.104      10.000
 62.114      10.000
 62.124      10.000
 62.134      10.000
 62.144      10.000
 62.154      10.000
 62.164      10.000
 62.174      10.000
 62.184      10.000
 62.194      10.000
 62.204      10.000
 62.214      10.000
 62.224      10.000
 62.234      10.000
 62.244      10.000
 62.254      10.000
 62.264      10.000
 62.274      10.000
 62.284      10.000
 62.294      10.000
 62.304      10.000
 62.314      10.000
 62.324      10.000
 62.334      10.000
 62.344      10.000
 62.354      10.000
 62.364      10.000
 62.374      10.000
 62.384      10.000
 62.394      10.000
 62.404      10.000
 62.414      10.000
 62.424      10.000
 62.434      10.000
 62.444      10.000
 62.454      10.000
 62.464      10.000
 62.474      10.000
 62.484      10.000
 62.494      10.000
 62.504      10.000
 62.514      10.000
 62.524      10.000
 62.534      10.000
 62.544      10.000
 62.554      10.000
 62.564      10.000
 62.574      10.000
 62.584      10.000
 62.595      10.000
 62.605      10.000
 62.615      10.000
 62.625      10.000
 62.635      10.000
 62.645      10.000
 62.655      10.000
 62.665      10.000
 62.675      10.000
 62.685      10.000
 62.695      10.000
 62.705      10.000
 62.715      10.000
 62.725      10.000
 62.735      10.000
 62.745      10.000
 62.755      10.000
 62.765      10.000
 62.775      10.000
 62.785      10.000
 62.795      10.000
 62.805      10.000
 62.815      10.000
 62.825      10.000
 62.835      10.000
 62.845      10.000
 62.855      10.000
 62.865      10.000
 62.875      10.000
 62.885      10.000
 62.895      10.000
 62.905      10.000
 62.915      10.000
 62.925      10.000
 62.935      10.000
 62.945      10.001
 62.955      10.001
 62.965      10.001
 62.975      10.002
 62.985      10.003
 62.995      10.004
 63.005      10.005
 63.015      10.007
 63.025      10.009
 63.035      10.013
 63.045      10.017
 63.055      10.023
 63.065      10.030
 63.075      10.039
 63.085      10.051
 63.095      10.066
 63.105      10.085
 63.115      10.109
 63.125      10.139
 63.135      10.176
 63.145      10.221
 63.156      10.276
 63.166      10.343
 63.176      10.423
 63.186      10.519
 63.196      10.632
 63.206      10.765
 63.216      10.921
 63.226      11.102
 63.236      11.310
 63.246      11.548
 63.256      11.817
 63.266      12.120
 63.276      12.459
 63.286      12.834
 63.296      13.246
 63.306      13.695
 63.316      14.181
 63.326      14.701
 63.336      15.253
 63.346      15.834
 63.356      16.439
 63.366      17.063
 63.376      17.700
 63.386      18.343
 63.396      18.983
 63.406      19.613
 63.416      20.224
 63.426      20.807
 63.436      21.352
 63.446      21.851
 63.456      22.296
 63.466      22.679
 63.476      22.994
 63.486      23.234
 63.496      23.396
 63.506      23.475
 63.516      23.472
 63.526      23.386
 63.536      23.218
 63.546      22.972
 63.556      22.652
 63.566      22.264
 63.576      21.815
 63.586      21.312
 63.596      20.763
 63.606      20.178
 63.616      19.565
 63.626      18.934
 63.636      18.293
 63.646      17.651
 63.656      17.015
 63.666      16.392
 63.676      15.788
 63.686      15.210
 63.696      14.660
 63.706      14.142
 63.717      13.660
 63.727      13.213
 63.737      12.804
 63.747      12.431
 63.757      12.096
 63.767      11.795
 63.777      11.528
 63.787      11.293
 63.797      11.087
 63.807      10.908
 63.817      10.754
 63.827      10.623
 63.837      10.511
 63.847      10.416
 63.857      10.337
 63.867      10.272
 63.877      10.217
 63.887      10.173
 63.897      10.137
 63.907      10.107
 63.917      10.084
 63.927      10.065
 63.937      10.050
 63.947      10.038
 63.957      10.029
 63.967      10.022
 63.977      10.017
 63.987      10.012
 63.997      10.009
 64.007      10.007
 64.017      10.005
 64.027      10.004
 64.037      10.003
 64.047      10.002
 64.057      10.001
 64.067      10.001
 64.077      10.001
 64.087      10.000
 64.097      10.000
 64.107      10.000
 64.117      10.000
 64.127      10.000
 64.137      10.000
 64.147      10.000
 64.157      10.000
 64.167      10.000
 64.177      10.000
 64.187      10.000
 64.197      10.000
 64.207      10.000
 64.217      10.000
 64.227      10.000
 64.237      10.000
 64.247      10.000
 64.257      10.000
 64.268      10.000
 64.278      10.000
 64.288      10.000
 64.298      10.000
 64.308      10.000
 64.318      10.000
 64.328      10.000
 64.338      10.000
 64.348      10.000
 64.358      10.000
 64.368      10.000
 64.378      10.000
 64.388      10.000
 64.398      10.000
 64.408      10.000
 64.418      10.000
 64.428      10.000
 64.438      10.000
 64.448      10.000
 64.458      10.000
 64.468      10.000
 64.478      10.000
 64.488      10.000
 64.498      10.000
 64.508      10.000
 64.518      10.000
 64.528      10.000
 64.538      10.000
 64.548      10.000
 64.558      10.000
 64.568      10.000
 64.578      10.000
 64.588      10.000
 64.598      10.000
 64.608      10.000
 64.618      10.000
 64.628      10.000
 64.638      10.000
 64.648      10.000
 64.658      10.000
 64.668      10.000
 64.678      10.000
 64.688      10.000
 64.698      10.000
 64.708      10.000
 64.718      10.000
 64.728      10.000
 64.738      10.000
 64.748      10.000
 64.758      10.000
 64.768      10.000
 64.778      10.000
 64.788      10.000
 64.798      10.000
 64.808      10.000
 64.818      10.000
 64.829      10.000
 64.839      10.000
 64.849      10.000
 64.859      10.000
 64.869      10.000
 64.879      10.000
 64.889      10.000
 64.899      10.000
 64.909      10.000
 64.919      10.000
 64.929      10.000
 64.939      10.000
 64.949      10.000
 64.959      10.000
 64.969      10.000
 64.979      10.000
 64.989      10.000
 64.999      10.000
 65.009      10.000
 65.019      10.000
 65.029      10.000
 65.039      10.000
 65.049      10.000
 65.059      10.000
 65.069      10.000
 65.079      10.000
 65.089      10.000
 65.099      10.001
 65.109      10.001
 65.119      10.001
 65.129      10.002
 65.139      10.002
 65.149      10.003
 65.159      10.005
 65.169      10.007
 65.179      10.009
 65.189      10.013
 65.199      10.018
 65.209      10.024
 65.219      10.032
 65.229      10.044
 65.239      10.058
 65.249      10.078
 65.259      10.103
 65.269      10.135
 65.279      10.176
 65.289      10.229
 65.299      10.295
 65.309      10.378
 65.319      10.482
 65.329      10.610
 65.339      10.768
 65.349      10.961
 65.359      11.194
 65.369      11.475
 65.380      11.810
 65.390      12.209
 65.400      12.679
 65.410      13.228
 65.420      13.866
 65.430      14.601
 65.440      15.443
 65.450      16.399
 65.460      17.477
 65.470      18.682
 65.480      20.019
 65.490      21.491
 65.500      23.097
 65.510      24.837
 65.520      26.704
 65.530      28.691
 65.540      30.785
 65.550      32.970
 65.560      35.228
 65.570      37.538
 65.580      39.874
 65.590      42.208
 65.600      44.511
 65.610      46.750
 65.620      48.894
 65.630      50.908
 65.640      52.762
 65.650      54.425
 65.660      55.868
 65.670      57.066
 65.680      57.997
 65.690      58.644
 65.700      58.997
 65.710      59.048
 65.720      58.796
 65.730      58.246
 65.740      57.409
 65.750      56.299
 65.760      54.936
 65.770      53.345
 65.780      51.551
 65.790      49.586
 65.800      47.482
 65.810      45.272
 65.820      42.987
 65.830      40.659
 65.840      38.321
 65.850      35.999
 65.860      33.721
 65.870      31.509
 65.880      29.383
 65.890      27.360
 65.900      25.451
 65.910      23.667
 65.920      22.015
 65.930      20.498
 65.941      19.116
 65.951      17.867
 65.961      16.747
 65.971      15.751
 65.981      14.872
 65.991      14.102
 66.001      13.432
 66.011      12.854
 66.021      12.359
 66.031      11.937
 66.041      11.581
 66.051      11.283
 66.061      11.034
 66.071      10.829
 66.081      10.660
 66.091      10.522
 66.101      10.411
 66.111      10.321
 66.121      10.249
 66.131      10.193
 66.141      10.148
 66.151      10.113
 66.161      10.085
 66.171      10.064
 66.181      10.048
 66.191      10.036
 66.201      10.026
 66.211      10.019
 66.221      10.014
 66.231      10.010
 66.241      10.007
 66.251      10.005
 66.261      10.004
 66.271      10.003
 66.281      10.002
 66.291      10.001
 66.301      10.001
 66.311      10.001
 66.321      10.000
 66.331      10.000
 66.341      10.000
 66.351      10.000
 66.361      10.000
 66.371      10.000
 66.381      10.000
 66.391      10.000
 66.401      10.000
 66.411      10.000
 66.421      10.000
 66.431      10.000
 66.441      10.000
 66.451      10.000
 66.461      10.000
 66.471      10.000
 66.481      10.000
 66.492      10.000
 66.502      10.000
 66.512      10.000
 66.522      10.000
 66.532      10.000
 66.542      10.000
 66.552      10.000
 66.562      10.000
 66.572      10.000
 66.582      10.000
 66.592      10.000
 66.602      10.000
 66.612      10.000
 66.622      10.000
 66.632      10.000
 66.642      10.000
 66.652      10.000
 66.662      10.000
 66.672      10.000
 66.682      10.000
 66.692      10.000
 66.702      10.000
 66.712      10.000
 66.722      10.000
 66.732      10.000
 66.742      10.000
 66.752      10.000
 66.762      10.000
 66.772      10.000
 66.782      10.000
 66.792      10.000
 66.802      10.000
 66.812      10.000
 66.822      10.000
 66.832      10.000
 66.842      10.000
 66.852      10.000
 66.862      10.000
 66.872      10.000
 66.882      10.000
 66.892      10.000
 66.902      10.000
 66.912      10.000
 66.922      10.000
 66.932      10.000
 66.942      10.000
 66.952      10.000
 66.962      10.000
 66.972      10.000
 66.982      10.000
 66.992      10.000
 67.002      10.000
 67.012      10.000
 67.022      10.000
 67.032      10.000
 67.042      10.000
 67.053      10.000
 67.063      10.000
 67.073      10.000
 67.083      10.000
 67.093      10.000
 67.103      10.000
 67.113      10.000
 67.123      10.000
 67.133      10.000
 67.143      10.000
 67.153      10.000
 67.163      10.000
 67.173      10.000
 67.183      10.000
 67.193      10.000
 67.203      10.000
 67.213      10.000
 67.223      10.000
 67.233      10.000
 67.243      10.000
 67.253      10.000
 67.263      10.000
 67.273      10.001
 67.283      10.001
 67.293      10.001
 67.303      10.002
 67.313      10.002
 67.323      10.003
 67.333      10.005
 67.343      10.006
 67.353      10.009
 67.363      10.012
 67.373      10.016
 67.383      10.022
 67.393      10.029
 67.403      10.039
 67.413      10.051
 67.423      10.068
 67.433      10.089
 67.443      10.116
 67.453      10.149
 67.463      10.192
 67.473      10.245
 67.483      10.312
 67.493      10.393
 67.503      10.494
 67.513      10.615
 67.523      10.762
 67.533      10.938
 67.543      11.148
 67.553      11.397
 67.563      11.688
 67.573      12.028
 67.583      12.421
 67.593      12.872
 67.604      13.386
 67.614      13.968
 67.624      14.621
 67.634      15.348
 67.644      16.152
 67.654      17.033
 67.664      17.991
 67.674      19.024
 67.684      20.126
 67.694      21.294
 67.704      22.518
 67.714      23.789
 67.724      25.096
 67.734      26.425
 67.744      27.761
 67.754      29.087
 67.764      30.385
 67.774      31.638
 67.784      32.826
 67.794      33.931
 67.804      34.935
 67.814      35.821
 67.824      36.573
 67.834      37.179
 67.844      37.627
 67.854      37.909
 67.864      38.021
 67.874      37.959
 67.884      37.726
 67.894      37.325
 67.904      36.764
 67.914      36.053
 67.924      35.205
 67.934      34.233
 67.944      33.155
 67.954      31.989
 67.964      30.753
 67.974      29.466
 67.984      28.146
 67.994      26.812
 68.004      25.479
 68.014      24.165
 68.024      22.882
 68.034      21.643
 68.044      20.458
 68.054      19.335
 68.064      18.282
 68.074      17.303
 68.084      16.399
 68.094      15.573
 68.104      14.824
 68.114      14.149
 68.124      13.547
 68.134      13.014
 68.144      12.545
 68.154      12.136
 68.165      11.781
 68.175      11.476
 68.185      11.216
 68.195      10.996
 68.205      10.810
 68.215      10.655
 68.225      10.526
 68.235      10.420
 68.245      10.334
 68.255      10.263
 68.265      10.206
 68.275      10.161
 68.285      10.125
 68.295      10.096
 68.305      10.073
 68.315      10.056
 68.325      10.042
 68.335      10.032
 68.345      10.024
 68.355      10.017
 68.365      10.013
 68.375      10.009
 68.385      10.007
 68.395      10.005
 68.405      10.004
 68.415      10.003
 68.425      10.002
 68.435      10.001
 68.445      10.001
 68.455      10.001
 68.465      10.000
 68.475      10.000
 68.485      10.000
 68.495      10.000
 68.505      10.000
 68.515      10.000
 68.525      10.000
 68.535      10.000
 68.545      10.000
 68.555      10.000
 68.565      10.000
 68.575      10.000
 68.585      10.000
 68.595      10.000
 68.605      10.000
 68.615      10.000
 68.625      10.000
 68.635      10.000
 68.645      10.000
 68.655      10.000
 68.665      10.000
 68.675      10.000
 68.685      10.000
 68.695      10.000
 68.705      10.000
 68.715      10.000
 68.726      10.000
 68.736      10.000
 68.746      10.000
 68.756      10.000
 68.766      10.000
 68.776      10.000
 68.786      10.000
 68.796      10.000
 68.806      10.000
 68.816      10.000
 68.826      10.000
 68.836      10.000
 68.846      10.000
 68.856      10.000
 68.866      10.000
 68.876      10.000
 68.886      10.000
 68.896      10.000
 68.906      10.000
 68.916      10.000
 68.926      10.000
 68.936      10.000
 68.946      10.000
 68.956      10.000
 68.966      10.000
 68.976      10.000
 68.986      10.000
 68.996      10.000
 69.006      10.000
 69.016      10.000
 69.026      10.000
 69.036      10.000
 69.046      10.000
 69.056      10.000
 69.066      10.000
 69.076      10.000
 69.086      10.000
 69.096      10.000
 69.106      10.000
 69.116      10.000
 69.126      10.000
 69.136      10.000
 69.146      10.000
 69.156      10.000
 69.166      10.000
 69.176      10.000
 69.186      10.000
 69.196      10.000
 69.206      10.000
 69.216      10.000
 69.226      10.000
 69.236      10.000
 69.246      10.000
 69.256      10.000
 69.266      10.000
 69.277      10.000
 69.287      10.000
 69.297      10.000
 69.307      10.000
 69.317      10.000
 69.327      10.000
 69.337      10.000
 69.347      10.000
 69.357      10.000
 69.367      10.000
 69.377      10.001
 69.387      10.001
 69.397      10.001
 69.407      10.002
 69.417      10.002
 69.427      10.003
 69.437      10.005
 69.447      10.007
 69.457      10.009
 69.467      10.013
 69.477      10.018
 69.487      10.024
 69.497      10.033
 69.507      10.045
 69.517      10.060
 69.527      10.080
 69.537      10.106
 69.547      10.140
 69.557      10.184
 69.567      10.240
 69.577      10.311
 69.587      10.401
 69.597      10.512
 69.607      10.652
 69.617      10.824
 69.627      11.035
 69.637      11.291
 69.647      11.602
 69.657      11.975
 69.667      12.420
 69.677      12.947
 69.687      13.567
 69.697      14.291
 69.707      15.130
 69.717      16.095
 69.727      17.196
 69.737      18.444
 69.747      19.847
 69.757      21.413
 69.767      23.146
 69.777      25.050
 69.787      27.122
 69.797      29.360
 69.807      31.756
 69.817      34.297
 69.827      36.970
 69.838      39.749
 69.848      42.614
 69.858      45.533
 69.868      48.476
 69.878      51.405
 69.888      54.282
 69.898      57.068
 69.908      59.720
 69.918      62.198
 69.928      64.462
 69.938      66.474
 69.948      68.201
 69.958      69.609
 69.968      70.675
 69.978      71.379
 69.988      71.708
 69.998      71.657
 70.008      71.227
 70.018      70.424
 70.028      69.265
 70.038      67.769
 70.048      65.965
 70.058      63.882
 70.068      61.557
 70.078      59.027
 70.088      56.334
 70.098      53.520
 70.108      50.625
 70.118      47.689
 70.128      44.749
 70.138      41.841
 70.148      38.997
 70.158      36.244
 70.168      33.606
 70.178      31.102
 70.188      28.748
 70.198      26.553
 70.208      24.524
 70.218      22.666
 70.228      20.978
 70.238      19.456
 70.248      18.095
 70.258      16.887
 70.268      15.824
 70.278      14.894
 70.288      14.087
 70.298      13.392
 70.308      12.798
 70.318      12.294
 70.328      11.869
 70.338      11.513
 70.348      11.218
 70.358      10.974
 70.368      10.774
 70.378      10.612
 70.389      10.480
 70.399      10.375
 70.409      10.290
 70.419      10.224
 70.429      10.171
 70.439      10.131
 70.449      10.099
 70.459      10.074
 70.469      10.055
 70.479      10.041
 70.489      10.030
 70.499      10.022
 70.509      10.016
 70.519      10.012
 70.529      10.008
 70.539      10.006
 70.549      10.004
 70.559      10.003
 70.569      10.002
 70.579      10.001
 70.589      10.001
 70.599      10.001
 70.609      10.000
 70.619      10.000
 70.629      10.000
 70.639      10.000
 70.649      10.000
 70.659      10.000
 70.669      10.000
 70.679      10.000
 70.689      10.000
 70.699      10.000
 70.709      10.000
 70.719      10.000
 70.729      10.000
 70.739      10.000
 70.749      10.000
 70.759      10.000
 70.769      10.000
 70.779      10.000
 70.789      10.000
 70.799      10.000
 70.809      10.000
 70.819      10.000
 70.829      10.000
 70.839      10.000
 70.849      10.000
 70.859      10.000
 70.869      10.000
 70.879      10.000
 70.889      10.000
 70.899      10.000
 70.909      10.000
 70.919      10.000
 70.929      10.000
 70.939      10.000
 70.950      10.000
 70.960      10.000
 70.970      10.000
 70.980      10.000
 70.990      10.000
 71.000      10.000
 71.010      10.000
 71.020      10.000
 71.030      10.000
 71.040      10.000
 71.050      10.000
 71.060      10.000
 71.070      10.000
 71.080      10.000
 71.090      10.000
 71.100      10.000
 71.110      10.000
 71.120      10.000
 71.130      10.000
 71.140      10.000
 71.150      10.000
 71.160      10.000
 71.170      10.000
 71.180      10.000
 71.190      10.000
 71.200      10.000
 71.210      10.000
 71.220      10.000
 71.230      10.000
 71.240      10.000
 71.250      10.000
 71.260      10.000
 71.270      10.000
 71.280      10.000
 71.290      10.000
 71.300      10.000
 71.310      10.000
 71.320      10.000
 71.330      10.000
 71.340      10.000
 71.350      10.000
 71.360      10.000
 71.370      10.000
 71.380      10.000
 71.390      10.000
 71.400      10.000
 71.410      10.000
 71.420      10.000
 71.430      10.000
 71.440      10.000
 71.450      10.000
 71.460      10.000
 71.470      10.000
 71.480      10.000
 71.490      10.000
 71.501      10.000
 71.511      10.001
 71.521      10.001
 71.531      10.001
 71.541      10.002
 71.551      10.002
 71.561      10.003
 71.571      10.005
 71.581      10.007
 71.591      10.009
 71.601      10.012
 71.611      10.016
 71.621      10.022
 71.631      10.029
 71.641      10.039
 71.651      10.051
 71.661      10.067
 71.671      10.086
 71.681      10.112
 71.691      10.143
 71.701      10.182
 71.711      10.231
 71.721      10.291
 71.731      10.364
 71.741      10.453
 71.751      10.560
 71.761      10.688
 71.771      10.839
 71.781      11.018
 71.791      11.228
 71.801      11.471
 71.811      11.752
 71.821      12.074
 71.831      12.439
 71.841      12.852
 71.851      13.313
 71.861      13.826
 71.871      14.390
 71.881      15.007
 71.891      15.675
 71.901      16.393
 71.911      17.157
 71.921      17.963
 71.931      18.805
 71.941      19.676
 71.951      20.567
 71.961      21.470
 71.971      22.374
 71.981      23.266
 71.991      24.135
 72.001      24.967
 72.011      25.751
 72.021      26.474
 72.031      27.124
 72.041      27.690
 72.051      28.162
 72.062      28.531
 72.072      28.792
 72.082      28.938
 72.092      28.969
 72.102      28.882
 72.112      28.679
 72.122      28.365
 72.132      27.945
 72.142      27.427
 72.152      26.819
 72.162      26.132
 72.172      25.378
 72.182      24.569
 72.192      23.717
 72.202      22.835
 72.212      21.937
 72.222      21.032
 72.232      20.133
 72.242      19.250
 72.252      18.392
 72.262      17.567
 72.272      16.781
 72.282      16.039
 72.292      15.345
 72.302      14.701
 72.312      14.110
 72.322      13.571
 72.332      13.083
 72.342      12.646
 72.352      12.256
 72.362      11.912
 72.372      11.611
 72.382      11.349
 72.392      11.122
 72.402      10.928
 72.412      10.762
 72.422      10.623
 72.432      10.505
 72.442      10.408
 72.452      10.327
 72.462      10.260
 72.472      10.206
 72.482      10.162
 72.492      10.127
 72.502      10.099
 72.512      10.076
 72.522      10.059
 72.532      10.045
 72.542      10.034
 72.552      10.026
 72.562      10.019
 72.572      10.014
 72.582      10.011
 72.592      10.008
 72.602      10.006
 72.613      10.004
 72.623      10.003
 72.633      10.002
 72.643      10.002
 72.653      10.001
 72.663      10.001
 72.673      10.001
 72.683      10.000
 72.693      10.000
 72.703      10.000
 72.713      10.000
 72.723      10.000
 72.733      10.000
 72.743      10.000
 72.753      10.000
 72.763      10.000
 72.773      10.000
 72.783      10.000
 72.793      10.000
 72.803      10.000
 72.813      10.000
 72.823      10.000
 72.833      10.000
 72.843      10.000
 72.853      10.000
 72.863      10.000
 72.873      10.000
 72.883      10.000
 72.893      10.000
 72.903      10.000
 72.913      10.000
 72.923      10.000
 72.933      10.000
 72.943      10.000
 72.953      10.000
 72.963      10.000
 72.973      10.000
 72.983      10.000
 72.993      10.000
 73.003      10.000
 73.013      10.000
 73.023      10.000
 73.033      10.000
 73.043      10.000
 73.053      10.000
 73.063      10.000
 73.073      10.000
 73.083      10.000
 73.093      10.000
 73.103      10.000
 73.113      10.000
 73.123      10.000
 73.133      10.000
 73.143      10.000
 73.153      10.000
 73.163      10.000
 73.174      10.000
 73.184      10.000
 73.194      10.000
 73.204      10.000
 73.214      10.000
 73.224      10.000
 73.234      10.000
 73.244      10.000
 73.254      10.000
 73.264      10.000
 73.274      10.000
 73.284      10.000
 73.294      10.000
 73.304      10.000
 73.314      10.000
 73.324      10.000
 73.334      10.000
 73.344      10.000
 73.354      10.000
 73.364      10.000
 73.374      10.000
 73.384      10.000
 73.394      10.000
 73.404      10.000
 73.414      10.000
 73.424      10.000
 73.434      10.000
 73.444      10.000
 73.454      10.000
 73.464      10.000
 73.474      10.000
 73.484      10.000
 73.494      10.000
 73.504      10.000
 73.514      10.000
 73.524      10.000
 73.534      10.000
 73.544      10.000
 73.554      10.000
 73.564      10.001
 73.574      10.001
 73.584      10.001
 73.594      10.002
 73.604      10.002
 73.614      10.003
 73.624      10.005
 73.634      10.007
 73.644      10.009
 73.654      10.012
 73.664      10.017
 73.674      10.023
 73.684      10.031
 73.694      10.041
 73.704      10.055
 73.714      10.073
 73.724      10.096
 73.735      10.125
 73.745      10.163
 73.755      10.210
 73.765      10.269
 73.775      10.343
 73.785      10.434
 73.795      10.546
 73.805      10.684
 73.815      10.850
 73.825      11.050
 73.835      11.289
 73.845      11.573
 73.855      11.907
 73.865      12.299
 73.875      12.754
 73.885      13.279
 73.895      13.879
 73.905      14.561
 73.915      15.331
 73.925      16.191
 73.935      17.146
 73.945      18.197
 73.955      19.345
 73.965      20.588
 73.975      21.922
 73.985      23.342
 73.995      24.840
 74.005      26.403
 74.015      28.019
 74.025      29.672
 74.035      31.345
 74.045      33.017
 74.055      34.667
 74.065      36.272
 74.075      37.809
 74.085      39.255
 74.095      40.586
 74.105      41.781
 74.115      42.819
 74.125      43.682
 74.135      44.355
 74.145      44.825
 74.155      45.083
 74.165      45.126
 74.175      44.952
 74.185      44.564
 74.195      43.971
 74.205      43.181
 74.215      42.210
 74.225      41.075
 74.235      39.795
 74.245      38.391
 74.255      36.887
 74.265      35.305
 74.275      33.670
 74.286      32.004
 74.296      30.329
 74.306      28.666
 74.316      27.034
 74.326      25.448
 74.336      23.924
 74.346      22.472
 74.356      21.103
 74.366      19.824
 74.376      18.637
 74.386      17.548
 74.396      16.555
 74.406      15.658
 74.416      14.854
 74.426      14.138
 74.436      13.506
 74.446      12.952
 74.456      12.471
 74.466      12.055
 74.476      11.698
 74.486      11.395
 74.496      11.139
 74.506      10.924
 74.516      10.745
 74.526      10.597
 74.536      10.476
 74.546      10.377
 74.556      10.296
 74.566      10.232
 74.576      10.180
 74.586      10.139
 74.596      10.107
 74.606      10.081
 74.616      10.062
 74.626      10.046
 74.636      10.035
 74.646      10.026
 74.656      10.019
 74.666      10.014
 74.676      10.010
 74.686      10.007
 74.696      10.005
 74.706      10.004
 74.716      10.003
 74.726      10.002
 74.736      10.001
 74.746      10.001
 74.756      10.001
 74.766      10.000
 74.776      10.000
 74.786      10.000
 74.796      10.000
 74.806      10.000
 74.816      10.000
 74.826      10.000
 74.836      10.000
 74.847      10.000
 74.857      10.000
 74.867      10.000
 74.877      10.000
 74.887      10.000
 74.897      10.000
 74.907      10.000
 74.917      10.000
 74.927      10.000
 74.937      10.000
 74.947      10.000
 74.957      10.000
 74.967      10.000
 74.977      10.000
 74.987      10.000
 74.997      10.000
 75.007      10.000
 75.017      10.000
 75.027      10.000
 75.037      10.000
 75.047      10.000
 75.057      10.000
 75.067      10.000
 75.077      10.000
 75.087      10.000
 75.097      10.000
 75.107      10.000
 75.117      10.000
 75.127      10.000
 75.137      10.000
 75.147      10.000
 75.157      10.000
 75.167      10.000
 75.177      10.000
 75.187      10.000
 75.197      10.000
 75.207      10.000
 75.217      10.000
 75.227      10.000
 75.237      10.000
 75.247      10.000
 75.257      10.000
 75.267      10.000
 75.277      10.000
 75.287      10.000
 75.297      10.000
 75.307      10.000
 75.317      10.000
 75.327      10.000
 75.337      10.000
 75.347      10.000
 75.357      10.000
 75.367      10.000
 75.377      10.000
 75.387      10.000
 75.398      10.000
 75.408      10.000
 75.418      10.000
 75.428      10.000
 75.438      10.000
 75.448      10.000
 75.458      10.000
 75.468      10.000
 75.478      10.000
 75.488      10.000
 75.498      10.000
 75.508      10.000
 75.518      10.000
 75.528      10.000
 75.538      10.000
 75.548      10.000
 75.558      10.000
 75.568      10.000
 75.578      10.000
 75.588      10.000
 75.598      10.000
 75.608      10.000
 75.618      10.000
 75.628      10.000
 75.638      10.001
 75.648      10.001
 75.658      10.001
 75.668      10.002
 75.678      10.002
 75.688      10.003
 75.698      10.004
 75.708      10.006
 75.718      10.008
 75.728      10.011
 75.738      10.015
 75.748      10.020
 75.758      10.027
 75.768      10.035
 75.778      10.047
 75.788      10.061
 75.798      10.079
 75.808      10.102
 75.818      10.130
 75.828      10.166
 75.838      10.210
 75.848      10.264
 75.858      10.329
 75.868      10.409
 75.878      10.505
 75.888      10.619
 75.898      10.755
 75.908      10.915
 75.918      11.101
 75.928      11.318
 75.938      11.568
 75.948      11.853
 75.959      12.176
 75.969      12.541
 75.979      12.948
 75.989      13.399
 75.999      13.895
 76.009      14.436
 76.019      15.022
 76.029      15.649
 76.039      16.315
 76.049      17.016
 76.059      17.748
 76.069      18.503
 76.079      19.273
 76.089      20.052
 76.099      20.828
 76.109      21.593
 76.119      22.335
 76.129      23.044
 76.139      23.708
 76.149      24.318
 76.159      24.862
 76.169      25.332
 76.179      25.719
 76.189      26.017
 76.199      26.220
 76.209      26.324
 76.219      26.327
 76.229      26.230
 76.239      26.034
 76.249      25.743
 76.259      25.362
 76.269      24.897
 76.279      24.357
 76.289      23.752
 76.299      23.091
 76.309      22.385
 76.319      21.645
 76.329      20.882
 76.339      20.106
 76.349      19.327
 76.359      18.556
 76.369      17.799
 76.379      17.066
 76.389      16.363
 76.399      15.693
 76.409      15.063
 76.419      14.475
 76.429      13.931
 76.439      13.432
 76.449      12.978
 76.459      12.567
 76.469      12.200
 76.479      11.874
 76.489      11.586
 76.499      11.334
 76.509      11.115
 76.520      10.927
 76.530      10.765
 76.540      10.628
 76.550      10.512
 76.560      10.415
 76.570      10.334
 76.580      10.268
 76.590      10.213
 76.600      10.168
 76.610      10.132
 76.620      10.103
 76.630      10.080
 76.640      10.062
 76.650      10.047
 76.660      10.036
 76.670      10.027
 76.680      10.021
 76.690      10.015
 76.700      10.011
 76.710      10.008
 76.720      10.006
 76.730      10.005
 76.740      10.003
 76.750      10.002
 76.760      10.002
 76.770      10.001
 76.780      10.001
 76.790      10.001
 76.800      10.000
 76.810      10.000
 76.820      10.000
 76.830      10.000
 76.840      10.000
 76.850      10.000
 76.860      10.000
 76.870      10.000
 76.880      10.000
 76.890      10.000
 76.900      10.000
 76.910      10.000
 76.920      10.000
 76.930      10.000
 76.940      10.000
 76.950      10.000
 76.960      10.000
 76.970      10.000
 76.980      10.000
 76.990      10.000
 77.000      10.000
 77.010      10.000
 77.020      10.000
 77.030      10.000
 77.040      10.000
 77.050      10.000
 77.060      10.000
 77.071      10.000
 77.081      10.000
 77.091      10.000
 77.101      10.000
 77.111      10.000
 77.121      10.000
 77.131      10.000
 77.141      10.000
 77.151      10.000
 77.161      10.000
 77.171      10.000
 77.181      10.000
 77.191      10.000
 77.201      10.000
 77.211      10.000
 77.221      10.000
 77.231      10.000
 77.241      10.000
 77.251      10.000
 77.261      10.000
 77.271      10.000
 77.281      10.000
 77.291      10.000
 77.301      10.000
 77.311      10.000
 77.321      10.000
 77.331      10.000
 77.341      10.000
 77.351      10.000
 77.361      10.000
 77.371      10.000
 77.381      10.000
 77.391      10.000
 77.401      10.000
 77.411      10.000
 77.421      10.000
 77.431      10.000
 77.441      10.000
 77.451      10.000
 77.461      10.000
 77.471      10.000
 77.481      10.000
 77.491      10.000
 77.501      10.000
 77.511      10.000
 77.521      10.000
 77.531      10.000
 77.541      10.000
 77.551      10.000
 77.561      10.000
 77.571      10.000
 77.581      10.000
 77.591      10.000
 77.601      10.000
 77.611      10.000
 77.621      10.000
 77.632      10.000
 77.642      10.000
 77.652      10.001
 77.662      10.001
 77.672      10.001
 77.682      10.002
 77.692      10.002
 77.702      10.003
 77.712      10.004
 77.722      10.006
 77.732      10.008
 77.742      10.011
 77.752      10.015
 77.762      10.021
 77.772      10.028
 77.782      10.037
 77.792      10.049
 77.802      10.065
 77.812      10.086
 77.822      10.112
 77.832      10.145
 77.842      10.187
 77.852      10.240
 77.862      10.306
 77.872      10.387
 77.882      10.487
 77.892      10.608
 77.902      10.756
 77.912      10.933
 77.922      11.145
 77.932      11.397
 77.942      11.692
 77.952      12.038
 77.962      12.440
 77.972      12.903
 77.982      13.432
 77.992      14.033
 78.002      14.709
 78.012      15.466
 78.022      16.304
 78.032      17.227
 78.042      18.234
 78.052      19.323
 78.062      20.490
 78.072      21.732
 78.082      23.039
 78.092      24.402
 78.102      25.810
 78.112      27.249
 78.122      28.703
 78.132      30.154
 78.142      31.584
 78.152      32.973
 78.162      34.301
 78.172      35.547
 78.183      36.691
 78.193      37.714
 78.203      38.600
 78.213      39.331
 78.223      39.896
 78.233      40.284
 78.243      40.488
 78.253      40.504
 78.263      40.332
 78.273      39.976
 78.283      39.440
 78.293      38.736
 78.303      37.876
 78.313      36.875
 78.323      35.750
 78.333      34.520
 78.343      33.205
 78.353      31.825
 78.363      30.401
 78.373      28.952
 78.383      27.498
 78.393      26.055
 78.403      24.641
 78.413      23.268
 78.423      21.950
 78.433      20.697
 78.443      19.517
 78.453      18.414
 78.463      17.393
 78.473      16.456
 78.483      15.604
 78.493      14.833
 78.503      14.143
 78.513      13.530
 78.523      12.989
 78.533      12.515
 78.543      12.103
 78.553      11.748
 78.563      11.444
 78.573      11.185
 78.583      10.967
 78.593      10.784
 78.603      10.632
 78.613      10.506
 78.623      10.403
 78.633      10.319
 78.643      10.250
 78.653      10.196
 78.663      10.152
 78.673      10.117
 78.683      10.090
 78.693      10.069
 78.703      10.052
 78.713      10.039
 78.723      10.029
 78.733      10.022
 78.744      10.016
 78.754      10.012
 78.764      10.009
 78.774      10.006
 78.784      10.005
 78.794      10.003
 78.804      10.002
 78.814      10.002
 78.824      10.001
 78.834      10.001
 78.844      10.001
 78.854      10.000
 78.864      10.000
 78.874      10.000
 78.884      10.000
 78.894      10.000
 78.904      10.000
 78.914      10.000
 78.924      10.000
 78.934      10.000
 78.944      10.000
 78.954      10.000
 78.964      10.000
 78.974      10.000
 78.984      10.000
 78.994      10.000
 79.004      10.000
 79.014      10.000
 79.024      10.000
 79.034      10.000
 79.044      10.000
 79.054      10.000
 79.064      10.000
 79.074      10.000
 79.084      10.000
 79.094      10.000
 79.104      10.000
 79.114      10.000
 79.124      10.000
 79.134      10.000
 79.144      10.000
 79.154      10.000
 79.164      10.000
 79.174      10.000
 79.184      10.000
 79.194      10.000
 79.204      10.000
 79.214      10.000
 79.224      10.000
 79.234      10.000
 79.244      10.000
 79.254      10.000
 79.264      10.000
 79.274      10.000
 79.284      10.000
 79.295      10.000
 79.305      10.000
 79.315      10.000
 79.325      10.000
 79.335      10.000
 79.345      10.000
 79.355      10.000
 79.365      10.000
 79.375      10.000
 79.385      10.000
 79.395      10.000
 79.405      10.000
 79.415      10.000
 79.425      10.000
 79.435      10.000
 79.445      10.000
 79.455      10.000
 79.465      10.000
 79.475      10.000
 79.485      10.000
 79.495      10.000
 79.505      10.000
 79.515      10.000
 79.525      10.000
 79.535      10.000
 79.545      10.000
 79.555      10.000
 79.565      10.000
 79.575      10.000
 79.585      10.000
 79.595      10.000
 79.605      10.000
 79.615      10.000
 79.625      10.000
 79.635      10.000
 79.645      10.000
 79.655      10.000
 79.665      10.000
 79.675      10.000
 79.685      10.000
 79.695      10.000
 79.705      10.000
 79.715      10.000
 79.725      10.001
 79.735      10.001
 79.745      10.001
 79.755      10.001
 79.765      10.002
 79.775      10.003
 79.785      10.004
 79.795      10.005
 79.805      10.007
 79.815      10.009
 79.825      10.012
 79.835      10.015
 79.845      10.020
 79.856      10.025
 79.866      10.033
 79.876      10.042
 79.886      10.053
 79.896      10.067
 79.906      10.084
 79.916      10.105
 79.926      10.130
 79.936      10.160
 79.946      10.195
 79.956      10.238
 79.966      10.287
 79.976      10.345
 79.986      10.412
 79.996      10.489
 80.006      10.576
 80.016      10.675
 80.026      10.787
 80.036      10.910
 80.046      11.047
 80.056      11.197
 80.066      11.360
 80.076      11.536
 80.086      11.724
 80.096      11.922
 80.106      12.131
 80.116      12.347
 80.126      12.570
 80.136      12.796
 80.146      13.024
 80.156      13.249
 80.166      13.471
 80.176      13.684
 80.186      13.886
 80.196      14.075
 80.206      14.246
 80.216      14.396
 80.226      14.525
 80.236      14.628
 80.246      14.704
 80.256      14.752
 80.266      14.771
 80.276      14.761
 80.286      14.721
 80.296      14.653
 80.306      14.558
 80.316      14.437
 80.326      14.292
 80.336      14.127
 80.346      13.943
 80.356      13.745
 80.366      13.535
 80.376      13.315
 80.386      13.091
 80.396      12.863
 80.407      12.636
 80.417      12.413
 80.427      12.194
 80.437      11.983
 80.447      11.781
 80.457      11.590
 80.467      11.411
 80.477      11.244
 80.487      11.090
 80.497      10.949
 80.507      10.822
 80.517      10.707
 80.527      10.604
 80.537      10.513
 80.547      10.434
 80.557      10.364
 80.567      10.303
 80.577      10.252
 80.587      10.207
 80.597      10.170
 80.607      10.138
 80.617      10.112
 80.627      10.090
 80.637      10.072
 80.647      10.057
 80.657      10.045
 80.667      10.035
 80.677      10.027
 80.687      10.021
 80.697      10.016
 80.707      10.012
 80.717      10.009
 80.727      10.007
 80.737      10.005
 80.747      10.004
 80.757      10.003
 80.767      10.002
 80.777      10.002
 80.787      10.001
 80.797      10.001
 80.807      10.001
 80.817      10.000
 80.827      10.000
 80.837      10.000
 80.847      10.000
 80.857      10.000
 80.867      10.000
 80.877      10.000
 80.887      10.000
 80.897      10.000
 80.907      10.000
 80.917      10.000
 80.927      10.000
 80.937      10.000
 80.947      10.000
 80.957      10.000
 80.968      10.000
 80.978      10.000
 80.988      10.000
 80.998      10.000
 81.008      10.000
 81.018      10.000
 81.028      10.000
 81.038      10.000
 81.048      10.000
 81.058      10.000
 81.068      10.000
 81.078      10.000
 81.088      10.000
 81.098      10.000
 81.108      10.000
 81.118      10.000
 81.128      10.000
 81.138      10.000
 81.148      10.000
 81.158      10.000
 81.168      10.000
 81.178      10.000
 81.188      10.000
 81.198      10.000
 81.208      10.000
 81.218      10.000
 81.228      10.000
 81.238      10.000
 81.248      10.000
 81.258      10.000
 81.268      10.000
 81.278      10.000
 81.288      10.000
 81.298      10.000
 81.308      10.000
 81.318      10.000
 81.328      10.000
 81.338      10.000
 81.348      10.000
 81.358      10.000
 81.368      10.000
 81.378      10.000
 81.388      10.000
 81.398      10.000
 81.408      10.000
 81.418      10.000
 81.428      10.000
 81.438      10.000
 81.448      10.000
 81.458      10.000
 81.468      10.000
 81.478      10.000
 81.488      10.000
 81.498      10.000
 81.508      10.000
 81.519      10.000
 81.529      10.000
 81.539      10.000
 81.549      10.000
 81.559      10.000
 81.569      10.000
 81.579      10.000
 81.589      10.000
 81.599      10.000
 81.609      10.000
 81.619      10.000
 81.629      10.000
 81.639      10.000
 81.649      10.000
 81.659      10.000
 81.669      10.001
 81.679      10.001
 81.689      10.001
 81.699      10.002
 81.709      10.002
 81.719      10.003
 81.729      10.005
 81.739      10.007
 81.749      10.009
 81.759      10.013
 81.769      10.018
 81.779      10.024
 81.789      10.033
 81.799      10.044
 81.809      10.059
 81.819      10.078
 81.829      10.104
 81.839      10.136
 81.849      10.177
 81.859      10.230
 81.869      10.296
 81.879      10.379
 81.889      10.483
 81.899      10.611
 81.909      10.768
 81.919      10.959
 81.929      11.191
 81.939      11.470
 81.949      11.803
 81.959      12.197
 81.969      12.661
 81.979      13.203
 81.989      13.833
 81.999      14.557
 82.009      15.385
 82.019      16.324
 82.029      17.381
 82.039      18.562
 82.049      19.870
 82.059      21.308
 82.069      22.876
 82.080      24.572
 82.090      26.388
 82.100      28.317
 82.110      30.347
 82.120      32.463
 82.130      34.645
 82.140      36.873
 82.150      39.122
 82.160      41.365
 82.170      43.572
 82.180      45.713
 82.190      47.756
 82.200      49.670
 82.210      51.426
 82.220      52.991
 82.230      54.340
 82.240      55.450
 82.250      56.300
 82.260      56.876
 82.270      57.166
 82.280      57.166
 82.290      56.874
 82.300      56.298
 82.310      55.446
 82.320      54.336
 82.330      52.984
 82.340      51.418
 82.350      49.663
 82.360      47.749
 82.370      45.705
 82.380      43.564
 82.390      41.356
 82.400      39.114
 82.410      36.865
 82.420      34.637
 82.430      32.454
 82.440      30.339
 82.450      28.309
 82.460      26.379
 82.470      24.564
 82.480      22.869
 82.490      21.302
 82.500      19.865
 82.510      18.557
 82.520      17.377
 82.530      16.320
 82.540      15.381
 82.550      14.554
 82.560      13.830
 82.570      13.201
 82.580      12.659
 82.590      12.195
 82.600      11.801
 82.610      11.469
 82.620      11.190
 82.631      10.958
 82.641      10.767
 82.651      10.610
 82.661      10.483
 82.671      10.379
 82.681      10.296
 82.691      10.230
 82.701      10.177
 82.711      10.136
 82.721      10.103
 82.731      10.078
 82.741      10.059
 82.751      10.044
 82.761      10.033
 82.771      10.024
 82.781      10.018
 82.791      10.013
 82.801      10.009
 82.811      10.007
 82.821      10.005
 82.831      10.003
 82.841      10.002
 82.851      10.002
 82.861      10.001
 82.871      10.001
 82.881      10.001
 82.891      10.000
 82.901      10.000
 82.911      10.000
 82.921      10.000
 82.931      10.000
 82.941      10.000
 82.951      10.000
 82.961      10.000
 82.971      10.000
 82.981      10.000
 82.991      10.000
 83.001      10.000
 83.011      10.000
 83.021      10.000
 83.031      10.000
 83.041      10.000
 83.051      10.000
 83.061      10.000
 83.071      10.000
 83.081      10.000
 83.091      10.000
 83.101      10.000
 83.111      10.000
 83.121      10.000
 83.131      10.000
 83.141      10.000
 83.151      10.000
 83.161      10.000
 83.171      10.000
 83.181      10.000
 83.192      10.000
 83.202      10.000
 83.212      10.000
 83.222      10.000
 83.232      10.000
 83.242      10.000
 83.252      10.000
 83.262      10.000
 83.272      10.000
 83.282      10.000
 83.292      10.000
 83.302      10.000
 83.312      10.000
 83.322      10.000
 83.332      10.000
 83.342      10.000
 83.352      10.000
 83.362      10.000
 83.372      10.000
 83.382      10.000
 83.392      10.000
 83.402      10.000
 83.412      10.000
 83.422      10.000
 83.432      10.000
 83.442      10.000
 83.452      10.000
 83.462      10.000
 83.472      10.000
 83.482      10.000
 83.492      10.000
 83.502      10.000
 83.512      10.000
 83.522      10.000
 83.532      10.000
 83.542      10.000
 83.552      10.000
 83.562      10.000
 83.572      10.000
 83.582      10.000
 83.592      10.000
 83.602      10.000
 83.612      10.000
 83.622      10.000
 83.632      10.000
 83.642      10.000
 83.652      10.000
 83.662      10.000
 83.672      10.000
 83.682      10.000
 83.692      10.000
 83.702      10.001
 83.712      10.001
 83.722      10.001
 83.732      10.002
 83.743      10.002
 83.753      10.003
 83.763      10.004
 83.773      10.006
 83.783      10.008
 83.793      10.011
 83.803      10.014
 83.813      10.019
 83.823      10.025
 83.833      10.033
 83.843      10.043
 83.853      10.056
 83.863      10.072
 83.873      10.093
 83.883      10.119
 83.893      10.150
 83.903      10.189
 83.913      10.237
 83.923      10.295
 83.933      10.365
 83.943      10.449
 83.953      10.549
 83.963      10.666
 83.973      10.804
 83.983      10.965
 83.993      11.150
 84.003      11.362
 84.013      11.604
 84.023      11.876
 84.033      12.182
 84.043      12.522
 84.053      12.896
 84.063      13.306
 84.073      13.751
 84.083      14.229
 84.093      14.738
 84.103      15.277
 84.113      15.840
 84.123      16.423
 84.133      17.022
 84.143      17.628
 84.153      18.236
 84.163      18.837
 84.173      19.424
 84.183      19.988
 84.193      20.521
 84.203      21.014
 84.213      21.458
 84.223      21.848
 84.233      22.174
 84.243      22.433
 84.253      22.619
 84.263      22.729
 84.273      22.760
 84.283      22.713
 84.293      22.588
 84.304      22.387
 84.314      22.114
 84.324      21.775
 84.334      21.374
 84.344      20.919
 84.354      20.418
 84.364      19.878
 84.374      19.309
 84.384      18.718
 84.394      18.115
 84.404      17.507
 84.414      16.901
 84.424      16.306
 84.434      15.726
 84.444      15.167
 84.454      14.635
 84.464      14.131
 84.474      13.660
 84.484      13.222
 84.494      12.819
 84.504      12.451
 84.514      12.118
 84.524      11.819
 84.534      11.553
 84.544      11.318
 84.554      11.111
 84.564      10.931
 84.574      10.775
 84.584      10.642
 84.594      10.528
 84.604      10.431
 84.614      10.350
 84.624      10.283
 84.634      10.227
 84.644      10.181
 84.654      10.143
 84.664      10.113
 84.674      10.088
 84.684      10.069
 84.694      10.053
 84.704      10.041
 84.714      10.031
 84.724      10.024
 84.734      10.018
 84.744      10.013
 84.754      10.010
 84.764      10.007
 84.774      10.005
 84.784      10.004
 84.794      10.003
 84.804      10.002
 84.814      10.001
 84.824      10.001
 84.834      10.001
 84.844      10.001
 84.854      10.000
 84.865      10.000
 84.875      10.000
 84.885      10.000
 84.895      10.000
 84.905      10.000
 84.915      10.000
 84.925      10.000
 84.935      10.000
 84.945      10.000
 84.955      10.000
 84.965      10.000
 84.975      10.000
 84.985      10.000
 84.995      10.000
 85.005      10.000
 85.015      10.000
 85.025      10.000
 85.035      10.000
 85.045      10.000
 85.055      10.000
 85.065      10.000
 85.075      10.000
 85.085      10.000
 85.095      10.000
 85.105      10.000
 85.115      10.000
 85.125      10.000
 85.135      10.000
 85.145      10.000
 85.155      10.000
 85.165      10.000
 85.175      10.000
 85.185      10.000
 85.195      10.000
 85.205      10.000
 85.215      10.000
 85.225      10.000
 85.235      10.000
 85.245      10.000
 85.255      10.000
 85.265      10.000
 85.275      10.000
 85.285      10.000
 85.295      10.000
 85.305      10.000
 85.315      10.000
 85.325      10.000
 85.335      10.000
 85.345      10.000
 85.355      10.000
 85.365      10.000
 85.375      10.000
 85.385      10.000
 85.395      10.000
 85.405      10.000
 85.416      10.000
 85.426      10.000
 85.436      10.000
 85.446      10.000
 85.456      10.000
 85.466      10.000
 85.476      10.000
 85.486      10.000
 85.496      10.000
 85.506      10.000
 85.516      10.000
 85.526      10.000
 85.536      10.000
 85.546      10.000
 85.556      10.000
 85.566      10.000
 85.576      10.000
 85.586      10.000
 85.596      10.000
 85.606      10.000
 85.616      10.000
 85.626      10.000
 85.636      10.000
 85.646      10.000
 85.656      10.001
 85.666      10.001
 85.676      10.001
 85.686      10.002
 85.696      10.002
 85.706      10.003
 85.716      10.005
 85.726      10.007
 85.736      10.009
 85.746      10.013
 85.756      10.018
 85.766      10.024
 85.776      10.033
 85.786      10.044
 85.796      10.059
 85.806      10.078
 85.816      10.103
 85.826      10.136
 85.836      10.177
 85.846      10.230
 85.856      10.296
 85.866      10.380
 85.876      10.484
 85.886      10.612
 85.896      10.770
 85.906      10.963
 85.916      11.196
 85.926      11.477
 85.936      11.812
 85.946      12.210
 85.956      12.679
 85.966      13.227
 85.977      13.863
 85.987      14.596
 85.997      15.436
 86.007      16.388
 86.017      17.461
 86.027      18.660
 86.037      19.990
 86.047      21.453
 86.057      23.050
 86.067      24.778
 86.077      26.631
 86.087      28.601
 86.097      30.676
 86.107      32.841
 86.117      35.078
 86.127      37.365
 86.137      39.675
 86.147      41.981
 86.157      44.255
 86.167      46.464
 86.177      48.576
 86.187      50.559
 86.197      52.380
 86.207      54.011
 86.217      55.423
 86.227      56.591
 86.237      57.495
 86.247      58.118
 86.257      58.448
 86.267      58.480
 86.277      58.213
 86.287      57.652
 86.297      56.807
 86.307      55.693
 86.317      54.332
 86.327      52.745
 86.337      50.962
 86.347      49.010
 86.357      46.923
 86.367      44.732
 86.377      42.468
 86.387      40.166
 86.397      37.855
 86.407      35.562
 86.417      33.313
 86.427      31.131
 86.437      29.035
 86.447      27.041
 86.457      25.162
 86.467      23.408
 86.477      21.783
 86.487      20.291
 86.497      18.932
 86.507      17.705
 86.517      16.606
 86.528      15.628
 86.538      14.766
 86.548      14.011
 86.558      13.355
 86.568      12.789
 86.578      12.304
 86.588      11.892
 86.598      11.543
 86.608      11.252
 86.618      11.009
 86.628      10.808
 86.638      10.643
 86.648      10.509
 86.658      10.400
 86.668      10.313
 86.678      10.243
 86.688      10.187
 86.698      10.144
 86.708      10.110
 86.718      10.083
 86.728      10.062
 86.738      10.047
 86.748      10.035
 86.758      10.026
 86.768      10.019
 86.778      10.014
 86.788      10.010
 86.798      10.007
 86.808      10.005
 86.818      10.004
 86.828      10.003
 86.838      10.002
 86.848      10.001
 86.858      10.001
 86.868      10.001
 86.878      10.000
 86.888      10.000
 86.898      10.000
 86.908      10.000
 86.918      10.000
 86.928      10.000
 86.938      10.000
 86.948      10.000
 86.958      10.000
 86.968      10.000
 86.978      10.000
 86.988      10.000
 86.998      10.000
 87.008      10.000
 87.018      10.000
 87.028      10.000
 87.038      10.000
 87.048      10.000
 87.058      10.000
 87.068      10.000
 87.078      10.000
 87.089      10.000
 87.099      10.000
 87.109      10.000
 87.119      10.000
 87.129      10.000
 87.139      10.000
 87.149      10.000
 87.159      10.000
 87.169      10.000
 87.179      10.000
 87.189      10.000
 87.199      10.000
 87.209      10.000
 87.219      10.000
 87.229      10.000
 87.239      10.000
 87.249      10.000
 87.259      10.000
 87.269      10.000
 87.279      10.000
 87.289      10.000
 87.299      10.000
 87.309      10.000
 87.319      10.000
 87.329      10.000
 87.339      10.000
 87.349      10.000
 87.359      10.000
 87.369      10.000
 87.379      10.000
 87.389      10.000
 87.399      10.000
 87.409      10.000
 87.419      10.000
 87.429      10.000
 87.439      10.000
 87.449      10.000
 87.459      10.000
 87.469      10.000
 87.479      10.000
 87.489      10.000
 87.499      10.000
 87.509      10.000
 87.519      10.000
 87.529      10.000
 87.539      10.000
 87.549      10.000
 87.559      10.000
 87.569      10.000
 87.579      10.000
 87.589      10.000
 87.599      10.000
 87.609      10.000
 87.619      10.000
 87.629      10.000
 87.640      10.000
 87.650      10.000
 87.660      10.001
 87.670      10.001
 87.680      10.001
 87.690      10.001
 87.700      10.002
 87.710      10.003
 87.720      10.004
 87.730      10.006
 87.740      10.008
 87.750      10.011
 87.760      10.014
 87.770      10.019
 87.780      10.026
 87.790      10.035
 87.800      10.046
 87.810      10.060
 87.820      10.079
 87.830      10.103
 87.840      10.133
 87.850      10.170
 87.860      10.217
 87.870      10.275
 87.880      10.346
 87.890      10.434
 87.900      10.540
 87.910      10.668
 87.920      10.821
 87.930      11.003
 87.940      11.217
 87.950      11.469
 87.960      11.761
 87.970      12.099
 87.980      12.485
 87.990      12.926
 88.000      13.422
 88.010      13.979
 88.020      14.598
 88.030      15.279
 88.040      16.025
 88.050      16.833
 88.060      17.703
 88.070      18.629
 88.080      19.607
 88.090      20.630
 88.100      21.689
 88.110      22.775
 88.120      23.875
 88.130      24.978
 88.140      26.069
 88.150      27.132
 88.160      28.153
 88.170      29.117
 88.180      30.007
 88.190      30.810
 88.201      31.512
 88.211      32.101
 88.221      32.565
 88.231      32.897
 88.241      33.091
 88.251      33.143
 88.261      33.053
 88.271      32.821
 88.281      32.452
 88.291      31.952
 88.301      31.332
 88.311      30.602
 88.321      29.773
 88.331      28.861
 88.341      27.881
 88.351      26.847
 88.361      25.774
 88.371      24.679
 88.381      23.576
 88.391      22.478
 88.401      21.398
 88.411      20.348
 88.421      19.336
 88.431      18.372
 88.441      17.460
 88.451      16.608
 88.461      15.816
 88.471      15.088
 88.481      14.423
 88.491      13.822
 88.501      13.282
 88.511      12.801
 88.521      12.375
 88.531      12.002
 88.541      11.677
 88.551      11.396
 88.561      11.155
 88.571      10.950
 88.581      10.777
 88.591      10.631
 88.601      10.509
 88.611      10.408
 88.621      10.326
 88.631      10.258
 88.641      10.203
 88.651      10.159
 88.661      10.124
 88.671      10.096
 88.681      10.073
 88.691      10.056
 88.701      10.043
 88.711      10.032
 88.721      10.024
 88.731      10.018
 88.741      10.013
 88.751      10.010
 88.762      10.007
 88.772      10.005
 88.782      10.004
 88.792      10.003
 88.802      10.002
 88.812      10.001
 88.822      10.001
 88.832      10.001
 88.842      10.000
 88.852      10.000
 88.862      10.000
 88.872      10.000
 88.882      10.000
 88.892      10.000
 88.902      10.000
 88.912      10.000
 88.922      10.000
 88.932      10.000
 88.942      10.000
 88.952      10.000
 88.962      10.000
 88.972      10.000
 88.982      10.000
 88.992      10.000
 89.002      10.000
 89.012      10.000
 89.022      10.000
 89.032      10.000
 89.042      10.000
 89.052      10.000
 89.062      10.000
 89.072      10.000
 89.082      10.000
 89.092      10.000
 89.102      10.000
 89.112      10.000
 89.122      10.000
 89.132      10.000
 89.142      10.000
 89.152      10.000
 89.162      10.000
 89.172      10.000
 89.182      10.000
 89.192      10.000
 89.202      10.000
 89.212      10.000
 89.222      10.000
 89.232      10.000
 89.242      10.000
 89.252      10.000
 89.262      10.000
 89.272      10.000
 89.282      10.000
 89.292      10.000
 89.302      10.000
 89.313      10.000
 89.323      10.000
 89.333      10.000
 89.343      10.000
 89.353      10.000
 89.363      10.000
 89.373      10.000
 89.383      10.000
 89.393      10.000
 89.403      10.000
 89.413      10.000
 89.423      10.000
 89.433      10.000
 89.443      10.000
 89.453      10.000
 89.463      10.000
 89.473      10.000
 89.483      10.000
 89.493      10.000
 89.503      10.000
 89.513      10.000
 89.523      10.000
 89.533      10.000
 89.543      10.000
 89.553      10.000
 89.563      10.000
 89.573      10.000
 89.583      10.000
 89.593      10.000
 89.603      10.000
 89.613      10.000
 89.623      10.000
 89.633      10.000
 89.643      10.000
 89.653      10.000
 89.663      10.000
 89.673      10.000
 89.683      10.000
 89.693      10.000
 89.703      10.000
 89.713      10.000
 89.723      10.000
 89.733      10.000
 89.743      10.000
 89.753      10.000
 89.763      10.000
 89.773      10.000
 89.783      10.000
 89.793      10.000
 89.803      10.000
 89.813      10.000
 89.823      10.000
 89.833      10.000
 89.843      10.000
 89.853      10.000
 89.863      10.000
 89.874      10.000
 89.884      10.000
 89.894      10.000
 89.904      10.000
 89.914      10.000
 89.924      10.000
 89.934      10.000
 89.944      10.000
 89.954      10.000
 89.964      10.000
 89.974      10.000
 89.984      10.000
 89.994      10.000
 90.004      10.000
