2theta /stopnie	natê¿enie/jednostki umowne
 10.000     100.000
 10.010     100.000
 10.020     100.000
 10.030     100.000
 10.040     100.000
 10.050     100.000
 10.060     100.000
 10.070     100.000
 10.080     100.000
 10.090     100.000
 10.100     100.000
 10.110     100.000
 10.120     100.000
 10.130     100.000
 10.140     100.000
 10.150     100.000
 10.160     100.000
 10.170     100.000
 10.180     100.000
 10.190     100.000
 10.200     100.000
 10.210     100.000
 10.220     100.000
 10.230     100.000
 10.240     100.000
 10.250     100.000
 10.260     100.000
 10.270     100.000
 10.281     100.000
 10.291     100.000
 10.301     100.000
 10.311     100.000
 10.321     100.000
 10.331     100.000
 10.341     100.000
 10.351     100.000
 10.361     100.000
 10.371     100.000
 10.381     100.000
 10.391     100.000
 10.401     100.000
 10.411     100.000
 10.421     100.000
 10.431     100.000
 10.441     100.000
 10.451     100.000
 10.461     100.000
 10.471     100.000
 10.481     100.000
 10.491     100.000
 10.501     100.000
 10.511     100.000
 10.521     100.000
 10.531     100.000
 10.541     100.000
 10.551     100.000
 10.561     100.000
 10.571     100.000
 10.581     100.000
 10.591     100.000
 10.601     100.000
 10.611     100.000
 10.621     100.000
 10.631     100.000
 10.641     100.000
 10.651     100.000
 10.661     100.000
 10.671     100.000
 10.681     100.000
 10.691     100.000
 10.701     100.000
 10.711     100.000
 10.721     100.000
 10.731     100.000
 10.741     100.000
 10.751     100.000
 10.761     100.000
 10.771     100.000
 10.781     100.000
 10.791     100.000
 10.801     100.000
 10.811     100.000
 10.821     100.000
 10.831     100.000
 10.842     100.000
 10.852     100.000
 10.862     100.000
 10.872     100.000
 10.882     100.000
 10.892     100.000
 10.902     100.000
 10.912     100.000
 10.922     100.000
 10.932     100.000
 10.942     100.000
 10.952     100.000
 10.962     100.000
 10.972     100.000
 10.982     100.000
 10.992     100.000
 11.002     100.000
 11.012     100.000
 11.022     100.000
 11.032     100.000
 11.042     100.000
 11.052     100.000
 11.062     100.000
 11.072     100.000
 11.082     100.000
 11.092     100.000
 11.102     100.000
 11.112     100.000
 11.122     100.000
 11.132     100.000
 11.142     100.000
 11.152     100.000
 11.162     100.000
 11.172     100.000
 11.182     100.000
 11.192     100.000
 11.202     100.000
 11.212     100.000
 11.222     100.000
 11.232     100.000
 11.242     100.000
 11.252     100.000
 11.262     100.000
 11.272     100.000
 11.282     100.000
 11.292     100.000
 11.302     100.000
 11.312     100.000
 11.322     100.000
 11.332     100.000
 11.342     100.000
 11.352     100.000
 11.362     100.000
 11.372     100.000
 11.382     100.000
 11.393     100.000
 11.403     100.000
 11.413     100.000
 11.423     100.000
 11.433     100.000
 11.443     100.000
 11.453     100.000
 11.463     100.000
 11.473     100.000
 11.483     100.000
 11.493     100.000
 11.503     100.000
 11.513     100.000
 11.523     100.000
 11.533     100.000
 11.543     100.000
 11.553     100.000
 11.563     100.000
 11.573     100.000
 11.583     100.000
 11.593     100.000
 11.603     100.000
 11.613     100.000
 11.623     100.000
 11.633     100.000
 11.643     100.000
 11.653     100.000
 11.663     100.000
 11.673     100.000
 11.683     100.000
 11.693     100.000
 11.703     100.000
 11.713     100.000
 11.723     100.000
 11.733     100.000
 11.743     100.000
 11.753     100.000
 11.763     100.000
 11.773     100.000
 11.783     100.000
 11.793     100.000
 11.803     100.000
 11.813     100.000
 11.823     100.000
 11.833     100.000
 11.843     100.000
 11.853     100.000
 11.863     100.000
 11.873     100.000
 11.883     100.000
 11.893     100.000
 11.903     100.000
 11.913     100.000
 11.923     100.000
 11.933     100.000
 11.943     100.000
 11.954     100.000
 11.964     100.000
 11.974     100.000
 11.984     100.000
 11.994     100.000
 12.004     100.000
 12.014     100.000
 12.024     100.000
 12.034     100.000
 12.044     100.000
 12.054     100.000
 12.064     100.000
 12.074     100.000
 12.084     100.000
 12.094     100.000
 12.104     100.000
 12.114     100.000
 12.124     100.000
 12.134     100.000
 12.144     100.000
 12.154     100.000
 12.164     100.000
 12.174     100.000
 12.184     100.000
 12.194     100.000
 12.204     100.000
 12.214     100.000
 12.224     100.000
 12.234     100.000
 12.244     100.000
 12.254     100.000
 12.264     100.000
 12.274     100.000
 12.284     100.000
 12.294     100.000
 12.304     100.000
 12.314     100.000
 12.324     100.000
 12.334     100.000
 12.344     100.000
 12.354     100.000
 12.364     100.000
 12.374     100.000
 12.384     100.000
 12.394     100.000
 12.404     100.000
 12.414     100.000
 12.424     100.000
 12.434     100.000
 12.444     100.000
 12.454     100.000
 12.464     100.000
 12.474     100.000
 12.484     100.000
 12.494     100.000
 12.505     100.000
 12.515     100.000
 12.525     100.000
 12.535     100.000
 12.545     100.000
 12.555     100.000
 12.565     100.000
 12.575     100.000
 12.585     100.000
 12.595     100.000
 12.605     100.000
 12.615     100.000
 12.625     100.000
 12.635     100.000
 12.645     100.000
 12.655     100.000
 12.665     100.000
 12.675     100.000
 12.685     100.000
 12.695     100.000
 12.705     100.000
 12.715     100.000
 12.725     100.000
 12.735     100.000
 12.745     100.000
 12.755     100.000
 12.765     100.000
 12.775     100.000
 12.785     100.000
 12.795     100.000
 12.805     100.000
 12.815     100.000
 12.825     100.000
 12.835     100.000
 12.845     100.000
 12.855     100.000
 12.865     100.000
 12.875     100.000
 12.885     100.000
 12.895     100.000
 12.905     100.000
 12.915     100.000
 12.925     100.000
 12.935     100.000
 12.945     100.000
 12.955     100.000
 12.965     100.000
 12.975     100.000
 12.985     100.000
 12.995     100.000
 13.005     100.000
 13.015     100.000
 13.025     100.000
 13.035     100.000
 13.045     100.000
 13.055     100.000
 13.066     100.000
 13.076     100.000
 13.086     100.000
 13.096     100.000
 13.106     100.000
 13.116     100.000
 13.126     100.000
 13.136     100.000
 13.146     100.000
 13.156     100.000
 13.166     100.000
 13.176     100.000
 13.186     100.000
 13.196     100.000
 13.206     100.000
 13.216     100.000
 13.226     100.000
 13.236     100.000
 13.246     100.000
 13.256     100.000
 13.266     100.000
 13.276     100.000
 13.286     100.000
 13.296     100.000
 13.306     100.000
 13.316     100.000
 13.326     100.000
 13.336     100.000
 13.346     100.000
 13.356     100.000
 13.366     100.000
 13.376     100.000
 13.386     100.000
 13.396     100.000
 13.406     100.000
 13.416     100.000
 13.426     100.000
 13.436     100.000
 13.446     100.000
 13.456     100.000
 13.466     100.000
 13.476     100.000
 13.486     100.000
 13.496     100.000
 13.506     100.000
 13.516     100.000
 13.526     100.000
 13.536     100.000
 13.546     100.000
 13.556     100.000
 13.566     100.000
 13.576     100.000
 13.586     100.000
 13.596     100.000
 13.606     100.000
 13.616     100.000
 13.627     100.000
 13.637     100.000
 13.647     100.000
 13.657     100.000
 13.667     100.000
 13.677     100.000
 13.687     100.000
 13.697     100.000
 13.707     100.000
 13.717     100.000
 13.727     100.000
 13.737     100.000
 13.747     100.000
 13.757     100.000
 13.767     100.000
 13.777     100.000
 13.787     100.000
 13.797     100.000
 13.807     100.000
 13.817     100.000
 13.827     100.000
 13.837     100.000
 13.847     100.000
 13.857     100.000
 13.867     100.000
 13.877     100.000
 13.887     100.000
 13.897     100.000
 13.907     100.000
 13.917     100.000
 13.927     100.000
 13.937     100.000
 13.947     100.000
 13.957     100.000
 13.967     100.000
 13.977     100.000
 13.987     100.000
 13.997     100.000
 14.007     100.000
 14.017     100.000
 14.027     100.000
 14.037     100.000
 14.047     100.000
 14.057     100.000
 14.067     100.000
 14.077     100.000
 14.087     100.000
 14.097     100.000
 14.107     100.000
 14.117     100.000
 14.127     100.000
 14.137     100.000
 14.147     100.000
 14.157     100.000
 14.167     100.000
 14.178     100.000
 14.188     100.000
 14.198     100.000
 14.208     100.000
 14.218     100.000
 14.228     100.000
 14.238     100.000
 14.248     100.000
 14.258     100.000
 14.268     100.000
 14.278     100.000
 14.288     100.000
 14.298     100.000
 14.308     100.000
 14.318     100.000
 14.328     100.000
 14.338     100.000
 14.348     100.000
 14.358     100.000
 14.368     100.000
 14.378     100.000
 14.388     100.000
 14.398     100.000
 14.408     100.000
 14.418     100.000
 14.428     100.000
 14.438     100.000
 14.448     100.000
 14.458     100.000
 14.468     100.000
 14.478     100.000
 14.488     100.000
 14.498     100.000
 14.508     100.000
 14.518     100.000
 14.528     100.000
 14.538     100.000
 14.548     100.000
 14.558     100.000
 14.568     100.000
 14.578     100.000
 14.588     100.000
 14.598     100.000
 14.608     100.000
 14.618     100.000
 14.628     100.000
 14.638     100.000
 14.648     100.000
 14.658     100.000
 14.668     100.000
 14.678     100.000
 14.688     100.000
 14.698     100.000
 14.708     100.000
 14.718     100.000
 14.728     100.000
 14.739     100.000
 14.749     100.000
 14.759     100.000
 14.769     100.000
 14.779     100.000
 14.789     100.000
 14.799     100.000
 14.809     100.000
 14.819     100.000
 14.829     100.000
 14.839     100.000
 14.849     100.000
 14.859     100.000
 14.869     100.000
 14.879     100.000
 14.889     100.000
 14.899     100.000
 14.909     100.000
 14.919     100.000
 14.929     100.000
 14.939     100.000
 14.949     100.000
 14.959     100.000
 14.969     100.000
 14.979     100.000
 14.989     100.000
 14.999     100.000
 15.009     100.000
 15.019     100.000
 15.029     100.000
 15.039     100.000
 15.049     100.000
 15.059     100.000
 15.069     100.000
 15.079     100.000
 15.089     100.000
 15.099     100.000
 15.109     100.000
 15.119     100.000
 15.129     100.000
 15.139     100.000
 15.149     100.000
 15.159     100.000
 15.169     100.000
 15.179     100.000
 15.189     100.000
 15.199     100.000
 15.209     100.000
 15.219     100.000
 15.229     100.000
 15.239     100.000
 15.249     100.000
 15.259     100.000
 15.269     100.000
 15.279     100.000
 15.290     100.000
 15.300     100.000
 15.310     100.000
 15.320     100.000
 15.330     100.000
 15.340     100.000
 15.350     100.000
 15.360     100.000
 15.370     100.000
 15.380     100.000
 15.390     100.000
 15.400     100.000
 15.410     100.000
 15.420     100.000
 15.430     100.000
 15.440     100.000
 15.450     100.000
 15.460     100.000
 15.470     100.000
 15.480     100.000
 15.490     100.000
 15.500     100.000
 15.510     100.000
 15.520     100.000
 15.530     100.000
 15.540     100.000
 15.550     100.000
 15.560     100.000
 15.570     100.000
 15.580     100.000
 15.590     100.000
 15.600     100.000
 15.610     100.000
 15.620     100.000
 15.630     100.000
 15.640     100.000
 15.650     100.000
 15.660     100.000
 15.670     100.000
 15.680     100.000
 15.690     100.000
 15.700     100.000
 15.710     100.000
 15.720     100.000
 15.730     100.000
 15.740     100.000
 15.750     100.000
 15.760     100.000
 15.770     100.000
 15.780     100.000
 15.790     100.000
 15.800     100.000
 15.810     100.000
 15.820     100.000
 15.830     100.000
 15.840     100.000
 15.851     100.000
 15.861     100.000
 15.871     100.000
 15.881     100.000
 15.891     100.000
 15.901     100.000
 15.911     100.000
 15.921     100.000
 15.931     100.000
 15.941     100.000
 15.951     100.000
 15.961     100.000
 15.971     100.000
 15.981     100.000
 15.991     100.000
 16.001     100.000
 16.011     100.000
 16.021     100.000
 16.031     100.000
 16.041     100.000
 16.051     100.000
 16.061     100.000
 16.071     100.000
 16.081     100.000
 16.091     100.000
 16.101     100.000
 16.111     100.000
 16.121     100.000
 16.131     100.000
 16.141     100.000
 16.151     100.000
 16.161     100.000
 16.171     100.000
 16.181     100.000
 16.191     100.000
 16.201     100.000
 16.211     100.000
 16.221     100.000
 16.231     100.000
 16.241     100.000
 16.251     100.000
 16.261     100.000
 16.271     100.000
 16.281     100.000
 16.291     100.000
 16.301     100.000
 16.311     100.000
 16.321     100.000
 16.331     100.000
 16.341     100.000
 16.351     100.000
 16.361     100.000
 16.371     100.000
 16.381     100.000
 16.391     100.000
 16.402     100.000
 16.412     100.000
 16.422     100.000
 16.432     100.000
 16.442     100.000
 16.452     100.000
 16.462     100.000
 16.472     100.000
 16.482     100.000
 16.492     100.000
 16.502     100.000
 16.512     100.000
 16.522     100.000
 16.532     100.000
 16.542     100.000
 16.552     100.000
 16.562     100.000
 16.572     100.000
 16.582     100.000
 16.592     100.000
 16.602     100.000
 16.612     100.000
 16.622     100.000
 16.632     100.000
 16.642     100.000
 16.652     100.000
 16.662     100.000
 16.672     100.000
 16.682     100.000
 16.692     100.000
 16.702     100.000
 16.712     100.000
 16.722     100.000
 16.732     100.000
 16.742     100.000
 16.752     100.000
 16.762     100.000
 16.772     100.000
 16.782     100.000
 16.792     100.000
 16.802     100.000
 16.812     100.000
 16.822     100.000
 16.832     100.000
 16.842     100.000
 16.852     100.000
 16.862     100.000
 16.872     100.000
 16.882     100.000
 16.892     100.000
 16.902     100.000
 16.912     100.000
 16.922     100.000
 16.932     100.000
 16.942     100.000
 16.952     100.000
 16.963     100.000
 16.973     100.000
 16.983     100.000
 16.993     100.000
 17.003     100.000
 17.013     100.000
 17.023     100.000
 17.033     100.000
 17.043     100.000
 17.053     100.000
 17.063     100.000
 17.073     100.000
 17.083     100.000
 17.093     100.000
 17.103     100.000
 17.113     100.000
 17.123     100.000
 17.133     100.000
 17.143     100.000
 17.153     100.000
 17.163     100.000
 17.173     100.000
 17.183     100.000
 17.193     100.000
 17.203     100.000
 17.213     100.000
 17.223     100.000
 17.233     100.000
 17.243     100.000
 17.253     100.000
 17.263     100.000
 17.273     100.000
 17.283     100.000
 17.293     100.000
 17.303     100.000
 17.313     100.000
 17.323     100.000
 17.333     100.000
 17.343     100.000
 17.353     100.000
 17.363     100.000
 17.373     100.000
 17.383     100.000
 17.393     100.000
 17.403     100.000
 17.413     100.000
 17.423     100.000
 17.433     100.000
 17.443     100.000
 17.453     100.000
 17.463     100.000
 17.473     100.000
 17.483     100.000
 17.493     100.000
 17.503     100.000
 17.514     100.000
 17.524     100.000
 17.534     100.000
 17.544     100.000
 17.554     100.000
 17.564     100.000
 17.574     100.000
 17.584     100.000
 17.594     100.000
 17.604     100.000
 17.614     100.000
 17.624     100.000
 17.634     100.000
 17.644     100.000
 17.654     100.000
 17.664     100.000
 17.674     100.000
 17.684     100.000
 17.694     100.000
 17.704     100.000
 17.714     100.000
 17.724     100.000
 17.734     100.000
 17.744     100.000
 17.754     100.000
 17.764     100.000
 17.774     100.000
 17.784     100.000
 17.794     100.000
 17.804     100.000
 17.814     100.000
 17.824     100.000
 17.834     100.000
 17.844     100.000
 17.854     100.000
 17.864     100.000
 17.874     100.000
 17.884     100.000
 17.894     100.000
 17.904     100.000
 17.914     100.000
 17.924     100.000
 17.934     100.000
 17.944     100.000
 17.954     100.000
 17.964     100.000
 17.974     100.000
 17.984     100.000
 17.994     100.000
 18.004     100.000
 18.014     100.000
 18.024     100.000
 18.034     100.000
 18.044     100.000
 18.054     100.000
 18.064     100.000
 18.075     100.000
 18.085     100.000
 18.095     100.000
 18.105     100.000
 18.115     100.000
 18.125     100.000
 18.135     100.000
 18.145     100.000
 18.155     100.000
 18.165     100.000
 18.175     100.000
 18.185     100.000
 18.195     100.000
 18.205     100.000
 18.215     100.000
 18.225     100.000
 18.235     100.000
 18.245     100.000
 18.255     100.000
 18.265     100.000
 18.275     100.000
 18.285     100.000
 18.295     100.000
 18.305     100.000
 18.315     100.000
 18.325     100.000
 18.335     100.000
 18.345     100.000
 18.355     100.000
 18.365     100.000
 18.375     100.000
 18.385     100.000
 18.395     100.000
 18.405     100.000
 18.415     100.000
 18.425     100.000
 18.435     100.000
 18.445     100.000
 18.455     100.000
 18.465     100.000
 18.475     100.000
 18.485     100.000
 18.495     100.000
 18.505     100.000
 18.515     100.000
 18.525     100.000
 18.535     100.000
 18.545     100.000
 18.555     100.000
 18.565     100.000
 18.575     100.000
 18.585     100.000
 18.595     100.000
 18.605     100.000
 18.615     100.000
 18.625     100.000
 18.636     100.000
 18.646     100.000
 18.656     100.000
 18.666     100.000
 18.676     100.000
 18.686     100.000
 18.696     100.000
 18.706     100.000
 18.716     100.000
 18.726     100.000
 18.736     100.000
 18.746     100.000
 18.756     100.000
 18.766     100.000
 18.776     100.000
 18.786     100.000
 18.796     100.000
 18.806     100.000
 18.816     100.000
 18.826     100.000
 18.836     100.000
 18.846     100.000
 18.856     100.000
 18.866     100.000
 18.876     100.000
 18.886     100.000
 18.896     100.000
 18.906     100.000
 18.916     100.000
 18.926     100.000
 18.936     100.000
 18.946     100.000
 18.956     100.000
 18.966     100.000
 18.976     100.000
 18.986     100.000
 18.996     100.000
 19.006     100.000
 19.016     100.000
 19.026     100.000
 19.036     100.000
 19.046     100.000
 19.056     100.000
 19.066     100.000
 19.076     100.000
 19.086     100.000
 19.096     100.000
 19.106     100.000
 19.116     100.000
 19.126     100.000
 19.136     100.000
 19.146     100.000
 19.156     100.000
 19.166     100.000
 19.176     100.000
 19.187     100.000
 19.197     100.000
 19.207     100.000
 19.217     100.000
 19.227     100.000
 19.237     100.000
 19.247     100.000
 19.257     100.000
 19.267     100.000
 19.277     100.000
 19.287     100.000
 19.297     100.000
 19.307     100.000
 19.317     100.000
 19.327     100.000
 19.337     100.000
 19.347     100.000
 19.357     100.000
 19.367     100.000
 19.377     100.000
 19.387     100.000
 19.397     100.000
 19.407     100.000
 19.417     100.000
 19.427     100.000
 19.437     100.000
 19.447     100.000
 19.457     100.000
 19.467     100.000
 19.477     100.000
 19.487     100.000
 19.497     100.000
 19.507     100.000
 19.517     100.000
 19.527     100.000
 19.537     100.000
 19.547     100.000
 19.557     100.000
 19.567     100.000
 19.577     100.000
 19.587     100.000
 19.597     100.000
 19.607     100.000
 19.617     100.000
 19.627     100.000
 19.637     100.000
 19.647     100.000
 19.657     100.000
 19.667     100.000
 19.677     100.000
 19.687     100.000
 19.697     100.000
 19.707     100.000
 19.717     100.000
 19.727     100.000
 19.737     100.000
 19.748     100.000
 19.758     100.000
 19.768     100.000
 19.778     100.000
 19.788     100.000
 19.798     100.000
 19.808     100.000
 19.818     100.000
 19.828     100.000
 19.838     100.000
 19.848     100.000
 19.858     100.000
 19.868     100.000
 19.878     100.000
 19.888     100.000
 19.898     100.000
 19.908     100.000
 19.918     100.000
 19.928     100.000
 19.938     100.000
 19.948     100.000
 19.958     100.000
 19.968     100.000
 19.978     100.000
 19.988     100.000
 19.998     100.000
 20.008     100.000
 20.018     100.000
 20.028     100.000
 20.038     100.000
 20.048     100.000
 20.058     100.000
 20.068     100.000
 20.078     100.000
 20.088     100.000
 20.098     100.000
 20.108     100.000
 20.118     100.000
 20.128     100.000
 20.138     100.000
 20.148     100.000
 20.158     100.000
 20.168     100.000
 20.178     100.000
 20.188     100.000
 20.198     100.000
 20.208     100.000
 20.218     100.000
 20.228     100.000
 20.238     100.000
 20.248     100.000
 20.258     100.000
 20.268     100.000
 20.278     100.000
 20.288     100.000
 20.299     100.000
 20.309     100.000
 20.319     100.000
 20.329     100.000
 20.339     100.000
 20.349     100.000
 20.359     100.000
 20.369     100.000
 20.379     100.000
 20.389     100.000
 20.399     100.000
 20.409     100.000
 20.419     100.000
 20.429     100.000
 20.439     100.000
 20.449     100.000
 20.459     100.000
 20.469     100.000
 20.479     100.000
 20.489     100.000
 20.499     100.000
 20.509     100.000
 20.519     100.000
 20.529     100.000
 20.539     100.000
 20.549     100.000
 20.559     100.000
 20.569     100.000
 20.579     100.000
 20.589     100.000
 20.599     100.000
 20.609     100.000
 20.619     100.000
 20.629     100.000
 20.639     100.000
 20.649     100.000
 20.659     100.000
 20.669     100.000
 20.679     100.000
 20.689     100.000
 20.699     100.000
 20.709     100.000
 20.719     100.000
 20.729     100.000
 20.739     100.000
 20.749     100.000
 20.759     100.000
 20.769     100.000
 20.779     100.000
 20.789     100.000
 20.799     100.000
 20.809     100.000
 20.819     100.000
 20.829     100.000
 20.839     100.000
 20.849     100.000
 20.860     100.000
 20.870     100.000
 20.880     100.000
 20.890     100.000
 20.900     100.000
 20.910     100.000
 20.920     100.000
 20.930     100.000
 20.940     100.000
 20.950     100.000
 20.960     100.000
 20.970     100.000
 20.980     100.000
 20.990     100.000
 21.000     100.000
 21.010     100.000
 21.020     100.000
 21.030     100.000
 21.040     100.000
 21.050     100.000
 21.060     100.000
 21.070     100.000
 21.080     100.000
 21.090     100.000
 21.100     100.000
 21.110     100.000
 21.120     100.000
 21.130     100.000
 21.140     100.000
 21.150     100.000
 21.160     100.000
 21.170     100.000
 21.180     100.000
 21.190     100.000
 21.200     100.000
 21.210     100.000
 21.220     100.000
 21.230     100.000
 21.240     100.000
 21.250     100.096
 21.260     100.279
 21.270     100.767
 21.280     101.996
 21.290     104.913
 21.300     111.437
 21.310     125.181
 21.320     152.439
 21.330     203.304
 21.340     292.468
 21.350     439.183
 21.360     665.436
 21.370     991.500
 21.380    1429.516
 21.390    1975.535
 21.400    2602.419
 21.411    3258.119
 21.421    3870.015
 21.431    4356.714
 21.441    4646.106
 21.451    4692.372
 21.461    4487.984
 21.471    4065.764
 21.481    3490.177
 21.491    2841.143
 21.501    2196.477
 21.511    1616.639
 21.521    1137.706
 21.531     771.629
 21.541     511.167
 21.551     338.064
 21.561     230.390
 21.571     167.551
 21.581     133.097
 21.591     115.340
 21.601     106.725
 21.611     102.788
 21.621     101.094
 21.631     100.406
 21.641     100.142
 21.651     100.000
 21.661     100.000
 21.671     100.000
 21.681     100.000
 21.691     100.000
 21.701     100.000
 21.711     100.000
 21.721     100.000
 21.731     100.000
 21.741     100.000
 21.751     100.000
 21.761     100.000
 21.771     100.000
 21.781     100.000
 21.791     100.000
 21.801     100.000
 21.811     100.000
 21.821     100.000
 21.831     100.000
 21.841     100.000
 21.851     100.000
 21.861     100.000
 21.871     100.000
 21.881     100.000
 21.891     100.000
 21.901     100.000
 21.911     100.000
 21.921     100.000
 21.931     100.000
 21.941     100.000
 21.951     100.000
 21.961     100.000
 21.972     100.000
 21.982     100.000
 21.992     100.000
 22.002     100.000
 22.012     100.000
 22.022     100.000
 22.032     100.000
 22.042     100.000
 22.052     100.000
 22.062     100.000
 22.072     100.000
 22.082     100.000
 22.092     100.000
 22.102     100.000
 22.112     100.000
 22.122     100.000
 22.132     100.000
 22.142     100.000
 22.152     100.000
 22.162     100.000
 22.172     100.000
 22.182     100.000
 22.192     100.000
 22.202     100.000
 22.212     100.000
 22.222     100.000
 22.232     100.000
 22.242     100.000
 22.252     100.000
 22.262     100.000
 22.272     100.000
 22.282     100.000
 22.292     100.000
 22.302     100.000
 22.312     100.000
 22.322     100.000
 22.332     100.000
 22.342     100.000
 22.352     100.000
 22.362     100.000
 22.372     100.000
 22.382     100.000
 22.392     100.000
 22.402     100.000
 22.412     100.000
 22.422     100.000
 22.432     100.000
 22.442     100.000
 22.452     100.000
 22.462     100.000
 22.472     100.000
 22.482     100.000
 22.492     100.000
 22.502     100.000
 22.512     100.000
 22.522     100.000
 22.533     100.000
 22.543     100.000
 22.553     100.000
 22.563     100.000
 22.573     100.000
 22.583     100.000
 22.593     100.000
 22.603     100.000
 22.613     100.000
 22.623     100.000
 22.633     100.000
 22.643     100.000
 22.653     100.000
 22.663     100.000
 22.673     100.000
 22.683     100.000
 22.693     100.000
 22.703     100.000
 22.713     100.000
 22.723     100.000
 22.733     100.000
 22.743     100.000
 22.753     100.000
 22.763     100.000
 22.773     100.000
 22.783     100.000
 22.793     100.000
 22.803     100.000
 22.813     100.000
 22.823     100.000
 22.833     100.000
 22.843     100.000
 22.853     100.000
 22.863     100.000
 22.873     100.000
 22.883     100.000
 22.893     100.000
 22.903     100.000
 22.913     100.000
 22.923     100.000
 22.933     100.000
 22.943     100.000
 22.953     100.000
 22.963     100.000
 22.973     100.000
 22.983     100.000
 22.993     100.000
 23.003     100.000
 23.013     100.000
 23.023     100.000
 23.033     100.000
 23.043     100.000
 23.053     100.000
 23.063     100.000
 23.073     100.000
 23.084     100.000
 23.094     100.000
 23.104     100.000
 23.114     100.000
 23.124     100.000
 23.134     100.000
 23.144     100.000
 23.154     100.000
 23.164     100.000
 23.174     100.000
 23.184     100.000
 23.194     100.000
 23.204     100.000
 23.214     100.000
 23.224     100.000
 23.234     100.000
 23.244     100.000
 23.254     100.000
 23.264     100.000
 23.274     100.000
 23.284     100.000
 23.294     100.000
 23.304     100.000
 23.314     100.000
 23.324     100.000
 23.334     100.000
 23.344     100.000
 23.354     100.000
 23.364     100.000
 23.374     100.000
 23.384     100.000
 23.394     100.000
 23.404     100.000
 23.414     100.000
 23.424     100.000
 23.434     100.000
 23.444     100.000
 23.454     100.000
 23.464     100.000
 23.474     100.000
 23.484     100.000
 23.494     100.000
 23.504     100.000
 23.514     100.000
 23.524     100.000
 23.534     100.000
 23.544     100.000
 23.554     100.000
 23.564     100.000
 23.574     100.000
 23.584     100.000
 23.594     100.000
 23.604     100.000
 23.614     100.000
 23.624     100.000
 23.634     100.000
 23.645     100.000
 23.655     100.000
 23.665     100.000
 23.675     100.000
 23.685     100.000
 23.695     100.000
 23.705     100.000
 23.715     100.000
 23.725     100.000
 23.735     100.000
 23.745     100.000
 23.755     100.000
 23.765     100.000
 23.775     100.000
 23.785     100.000
 23.795     100.000
 23.805     100.000
 23.815     100.000
 23.825     100.000
 23.835     100.000
 23.845     100.000
 23.855     100.000
 23.865     100.000
 23.875     100.000
 23.885     100.000
 23.895     100.000
 23.905     100.000
 23.915     100.000
 23.925     100.000
 23.935     100.000
 23.945     100.000
 23.955     100.000
 23.965     100.000
 23.975     100.000
 23.985     100.000
 23.995     100.000
 24.005     100.000
 24.015     100.000
 24.025     100.000
 24.035     100.000
 24.045     100.000
 24.055     100.000
 24.065     100.000
 24.075     100.000
 24.085     100.000
 24.095     100.000
 24.105     100.000
 24.115     100.000
 24.125     100.000
 24.135     100.000
 24.145     100.000
 24.155     100.000
 24.165     100.000
 24.175     100.000
 24.185     100.000
 24.196     100.000
 24.206     100.000
 24.216     100.000
 24.226     100.000
 24.236     100.000
 24.246     100.000
 24.256     100.000
 24.266     100.000
 24.276     100.000
 24.286     100.000
 24.296     100.000
 24.306     100.000
 24.316     100.000
 24.326     100.000
 24.336     100.000
 24.346     100.000
 24.356     100.000
 24.366     100.000
 24.376     100.000
 24.386     100.000
 24.396     100.000
 24.406     100.000
 24.416     100.000
 24.426     100.000
 24.436     100.000
 24.446     100.000
 24.456     100.000
 24.466     100.000
 24.476     100.000
 24.486     100.000
 24.496     100.000
 24.506     100.000
 24.516     100.000
 24.526     100.000
 24.536     100.000
 24.546     100.000
 24.556     100.000
 24.566     100.000
 24.576     100.000
 24.586     100.000
 24.596     100.000
 24.606     100.000
 24.616     100.000
 24.626     100.000
 24.636     100.000
 24.646     100.000
 24.656     100.000
 24.666     100.000
 24.676     100.000
 24.686     100.000
 24.696     100.000
 24.706     100.000
 24.716     100.000
 24.726     100.000
 24.736     100.000
 24.746     100.000
 24.757     100.000
 24.767     100.000
 24.777     100.000
 24.787     100.000
 24.797     100.000
 24.807     100.000
 24.817     100.000
 24.827     100.000
 24.837     100.000
 24.847     100.000
 24.857     100.000
 24.867     100.000
 24.877     100.000
 24.887     100.000
 24.897     100.000
 24.907     100.000
 24.917     100.000
 24.927     100.000
 24.937     100.000
 24.947     100.000
 24.957     100.000
 24.967     100.000
 24.977     100.000
 24.987     100.000
 24.997     100.000
 25.007     100.000
 25.017     100.000
 25.027     100.000
 25.037     100.000
 25.047     100.000
 25.057     100.000
 25.067     100.000
 25.077     100.000
 25.087     100.000
 25.097     100.000
 25.107     100.000
 25.117     100.000
 25.127     100.000
 25.137     100.000
 25.147     100.000
 25.157     100.000
 25.167     100.000
 25.177     100.000
 25.187     100.000
 25.197     100.000
 25.207     100.000
 25.217     100.000
 25.227     100.000
 25.237     100.000
 25.247     100.000
 25.257     100.000
 25.267     100.000
 25.277     100.000
 25.287     100.000
 25.297     100.000
 25.308     100.000
 25.318     100.000
 25.328     100.000
 25.338     100.000
 25.348     100.000
 25.358     100.000
 25.368     100.000
 25.378     100.000
 25.388     100.000
 25.398     100.000
 25.408     100.000
 25.418     100.000
 25.428     100.000
 25.438     100.000
 25.448     100.000
 25.458     100.000
 25.468     100.000
 25.478     100.000
 25.488     100.000
 25.498     100.000
 25.508     100.000
 25.518     100.000
 25.528     100.000
 25.538     100.000
 25.548     100.000
 25.558     100.000
 25.568     100.000
 25.578     100.000
 25.588     100.000
 25.598     100.000
 25.608     100.000
 25.618     100.000
 25.628     100.000
 25.638     100.000
 25.648     100.000
 25.658     100.000
 25.668     100.000
 25.678     100.000
 25.688     100.000
 25.698     100.000
 25.708     100.000
 25.718     100.000
 25.728     100.000
 25.738     100.000
 25.748     100.000
 25.758     100.000
 25.768     100.000
 25.778     100.000
 25.788     100.000
 25.798     100.000
 25.808     100.000
 25.818     100.000
 25.828     100.000
 25.838     100.000
 25.848     100.000
 25.858     100.000
 25.869     100.000
 25.879     100.000
 25.889     100.000
 25.899     100.000
 25.909     100.000
 25.919     100.000
 25.929     100.000
 25.939     100.000
 25.949     100.000
 25.959     100.000
 25.969     100.000
 25.979     100.000
 25.989     100.000
 25.999     100.000
 26.009     100.000
 26.019     100.000
 26.029     100.000
 26.039     100.000
 26.049     100.000
 26.059     100.000
 26.069     100.000
 26.079     100.000
 26.089     100.000
 26.099     100.000
 26.109     100.000
 26.119     100.000
 26.129     100.000
 26.139     100.000
 26.149     100.000
 26.159     100.000
 26.169     100.000
 26.179     100.000
 26.189     100.000
 26.199     100.000
 26.209     100.000
 26.219     100.000
 26.229     100.000
 26.239     100.000
 26.249     100.000
 26.259     100.000
 26.269     100.000
 26.279     100.000
 26.289     100.000
 26.299     100.000
 26.309     100.000
 26.319     100.000
 26.329     100.000
 26.339     100.000
 26.349     100.000
 26.359     100.000
 26.369     100.000
 26.379     100.000
 26.389     100.000
 26.399     100.000
 26.409     100.000
 26.420     100.000
 26.430     100.000
 26.440     100.000
 26.450     100.000
 26.460     100.000
 26.470     100.000
 26.480     100.000
 26.490     100.000
 26.500     100.000
 26.510     100.000
 26.520     100.000
 26.530     100.000
 26.540     100.000
 26.550     100.000
 26.560     100.000
 26.570     100.000
 26.580     100.000
 26.590     100.000
 26.600     100.000
 26.610     100.000
 26.620     100.000
 26.630     100.000
 26.640     100.000
 26.650     100.000
 26.660     100.000
 26.670     100.000
 26.680     100.000
 26.690     100.000
 26.700     100.000
 26.710     100.000
 26.720     100.000
 26.730     100.000
 26.740     100.000
 26.750     100.000
 26.760     100.000
 26.770     100.000
 26.780     100.000
 26.790     100.000
 26.800     100.000
 26.810     100.000
 26.820     100.000
 26.830     100.000
 26.840     100.000
 26.850     100.000
 26.860     100.000
 26.870     100.000
 26.880     100.000
 26.890     100.000
 26.900     100.000
 26.910     100.000
 26.920     100.000
 26.930     100.000
 26.940     100.000
 26.950     100.000
 26.960     100.000
 26.970     100.000
 26.981     100.000
 26.991     100.000
 27.001     100.000
 27.011     100.000
 27.021     100.000
 27.031     100.000
 27.041     100.000
 27.051     100.000
 27.061     100.000
 27.071     100.000
 27.081     100.000
 27.091     100.000
 27.101     100.000
 27.111     100.000
 27.121     100.000
 27.131     100.000
 27.141     100.000
 27.151     100.000
 27.161     100.000
 27.171     100.000
 27.181     100.000
 27.191     100.000
 27.201     100.000
 27.211     100.000
 27.221     100.000
 27.231     100.000
 27.241     100.000
 27.251     100.000
 27.261     100.000
 27.271     100.000
 27.281     100.000
 27.291     100.000
 27.301     100.000
 27.311     100.000
 27.321     100.000
 27.331     100.000
 27.341     100.000
 27.351     100.000
 27.361     100.000
 27.371     100.000
 27.381     100.000
 27.391     100.000
 27.401     100.000
 27.411     100.000
 27.421     100.000
 27.431     100.000
 27.441     100.000
 27.451     100.000
 27.461     100.000
 27.471     100.000
 27.481     100.000
 27.491     100.000
 27.501     100.000
 27.511     100.000
 27.521     100.000
 27.531     100.000
 27.542     100.000
 27.552     100.000
 27.562     100.000
 27.572     100.000
 27.582     100.000
 27.592     100.000
 27.602     100.000
 27.612     100.000
 27.622     100.000
 27.632     100.000
 27.642     100.000
 27.652     100.000
 27.662     100.000
 27.672     100.000
 27.682     100.000
 27.692     100.000
 27.702     100.000
 27.712     100.000
 27.722     100.000
 27.732     100.000
 27.742     100.000
 27.752     100.000
 27.762     100.000
 27.772     100.000
 27.782     100.000
 27.792     100.000
 27.802     100.000
 27.812     100.000
 27.822     100.000
 27.832     100.000
 27.842     100.000
 27.852     100.000
 27.862     100.000
 27.872     100.000
 27.882     100.000
 27.892     100.000
 27.902     100.000
 27.912     100.000
 27.922     100.000
 27.932     100.000
 27.942     100.000
 27.952     100.000
 27.962     100.000
 27.972     100.000
 27.982     100.000
 27.992     100.000
 28.002     100.000
 28.012     100.000
 28.022     100.000
 28.032     100.000
 28.042     100.000
 28.052     100.000
 28.062     100.000
 28.072     100.000
 28.082     100.000
 28.093     100.000
 28.103     100.000
 28.113     100.000
 28.123     100.000
 28.133     100.000
 28.143     100.000
 28.153     100.000
 28.163     100.000
 28.173     100.000
 28.183     100.000
 28.193     100.000
 28.203     100.000
 28.213     100.000
 28.223     100.000
 28.233     100.000
 28.243     100.000
 28.253     100.000
 28.263     100.000
 28.273     100.000
 28.283     100.000
 28.293     100.000
 28.303     100.000
 28.313     100.000
 28.323     100.000
 28.333     100.000
 28.343     100.000
 28.353     100.000
 28.363     100.000
 28.373     100.000
 28.383     100.000
 28.393     100.000
 28.403     100.000
 28.413     100.000
 28.423     100.000
 28.433     100.000
 28.443     100.000
 28.453     100.000
 28.463     100.000
 28.473     100.000
 28.483     100.000
 28.493     100.000
 28.503     100.000
 28.513     100.000
 28.523     100.000
 28.533     100.000
 28.543     100.000
 28.553     100.000
 28.563     100.000
 28.573     100.000
 28.583     100.000
 28.593     100.000
 28.603     100.000
 28.613     100.000
 28.623     100.000
 28.633     100.000
 28.643     100.000
 28.654     100.000
 28.664     100.000
 28.674     100.000
 28.684     100.000
 28.694     100.000
 28.704     100.000
 28.714     100.000
 28.724     100.000
 28.734     100.000
 28.744     100.000
 28.754     100.000
 28.764     100.000
 28.774     100.000
 28.784     100.000
 28.794     100.000
 28.804     100.000
 28.814     100.000
 28.824     100.000
 28.834     100.000
 28.844     100.000
 28.854     100.000
 28.864     100.000
 28.874     100.000
 28.884     100.000
 28.894     100.000
 28.904     100.000
 28.914     100.000
 28.924     100.000
 28.934     100.000
 28.944     100.000
 28.954     100.000
 28.964     100.000
 28.974     100.000
 28.984     100.000
 28.994     100.000
 29.004     100.000
 29.014     100.000
 29.024     100.000
 29.034     100.000
 29.044     100.000
 29.054     100.000
 29.064     100.000
 29.074     100.000
 29.084     100.000
 29.094     100.000
 29.104     100.000
 29.114     100.000
 29.124     100.000
 29.134     100.000
 29.144     100.000
 29.154     100.000
 29.164     100.000
 29.174     100.000
 29.184     100.000
 29.194     100.000
 29.205     100.000
 29.215     100.000
 29.225     100.000
 29.235     100.000
 29.245     100.000
 29.255     100.000
 29.265     100.000
 29.275     100.000
 29.285     100.000
 29.295     100.000
 29.305     100.000
 29.315     100.000
 29.325     100.000
 29.335     100.000
 29.345     100.000
 29.355     100.000
 29.365     100.000
 29.375     100.000
 29.385     100.000
 29.395     100.000
 29.405     100.000
 29.415     100.000
 29.425     100.000
 29.435     100.000
 29.445     100.000
 29.455     100.000
 29.465     100.000
 29.475     100.000
 29.485     100.000
 29.495     100.000
 29.505     100.000
 29.515     100.000
 29.525     100.000
 29.535     100.000
 29.545     100.000
 29.555     100.000
 29.565     100.000
 29.575     100.000
 29.585     100.000
 29.595     100.000
 29.605     100.000
 29.615     100.000
 29.625     100.000
 29.635     100.000
 29.645     100.000
 29.655     100.000
 29.665     100.000
 29.675     100.000
 29.685     100.000
 29.695     100.000
 29.705     100.000
 29.715     100.000
 29.725     100.000
 29.735     100.000
 29.745     100.000
 29.755     100.000
 29.766     100.000
 29.776     100.000
 29.786     100.000
 29.796     100.000
 29.806     100.000
 29.816     100.000
 29.826     100.000
 29.836     100.000
 29.846     100.000
 29.856     100.000
 29.866     100.000
 29.876     100.000
 29.886     100.000
 29.896     100.000
 29.906     100.000
 29.916     100.000
 29.926     100.000
 29.936     100.000
 29.946     100.000
 29.956     100.000
 29.966     100.000
 29.976     100.000
 29.986     100.000
 29.996     100.000
 30.006     100.000
 30.016     100.000
 30.026     100.000
 30.036     100.000
 30.046     100.000
 30.056     100.000
 30.066     100.000
 30.076     100.000
 30.086     100.000
 30.096     100.000
 30.106     100.000
 30.116     100.000
 30.126     100.000
 30.136     100.000
 30.146     100.000
 30.156     100.000
 30.166     100.000
 30.176     100.000
 30.186     100.000
 30.196     100.000
 30.206     100.000
 30.216     100.000
 30.226     100.000
 30.236     100.000
 30.246     100.000
 30.256     100.000
 30.266     100.000
 30.276     100.000
 30.286     100.000
 30.296     100.000
 30.306     100.000
 30.317     100.000
 30.327     100.000
 30.337     100.000
 30.347     100.000
 30.357     100.000
 30.367     100.000
 30.377     100.000
 30.387     100.000
 30.397     100.000
 30.407     100.000
 30.417     100.000
 30.427     100.000
 30.437     100.000
 30.447     100.000
 30.457     100.000
 30.467     100.000
 30.477     100.000
 30.487     100.000
 30.497     100.000
 30.507     100.000
 30.517     100.000
 30.527     100.000
 30.537     100.000
 30.547     100.000
 30.557     100.000
 30.567     100.000
 30.577     100.000
 30.587     100.000
 30.597     100.000
 30.607     100.000
 30.617     100.000
 30.627     100.000
 30.637     100.000
 30.647     100.000
 30.657     100.000
 30.667     100.000
 30.677     100.000
 30.687     100.000
 30.697     100.000
 30.707     100.000
 30.717     100.000
 30.727     100.000
 30.737     100.000
 30.747     100.000
 30.757     100.000
 30.767     100.000
 30.777     100.000
 30.787     100.000
 30.797     100.000
 30.807     100.000
 30.817     100.000
 30.827     100.000
 30.837     100.000
 30.847     100.000
 30.857     100.000
 30.867     100.000
 30.878     100.000
 30.888     100.000
 30.898     100.000
 30.908     100.000
 30.918     100.000
 30.928     100.000
 30.938     100.000
 30.948     100.000
 30.958     100.000
 30.968     100.000
 30.978     100.000
 30.988     100.000
 30.998     100.000
 31.008     100.000
 31.018     100.000
 31.028     100.000
 31.038     100.000
 31.048     100.000
 31.058     100.000
 31.068     100.000
 31.078     100.000
 31.088     100.000
 31.098     100.000
 31.108     100.000
 31.118     100.000
 31.128     100.000
 31.138     100.000
 31.148     100.000
 31.158     100.000
 31.168     100.000
 31.178     100.000
 31.188     100.000
 31.198     100.000
 31.208     100.000
 31.218     100.000
 31.228     100.000
 31.238     100.000
 31.248     100.000
 31.258     100.000
 31.268     100.000
 31.278     100.000
 31.288     100.000
 31.298     100.000
 31.308     100.000
 31.318     100.000
 31.328     100.000
 31.338     100.000
 31.348     100.000
 31.358     100.000
 31.368     100.000
 31.378     100.000
 31.388     100.000
 31.398     100.000
 31.408     100.000
 31.418     100.000
 31.429     100.000
 31.439     100.000
 31.449     100.000
 31.459     100.000
 31.469     100.000
 31.479     100.000
 31.489     100.000
 31.499     100.000
 31.509     100.000
 31.519     100.000
 31.529     100.000
 31.539     100.000
 31.549     100.000
 31.559     100.000
 31.569     100.000
 31.579     100.000
 31.589     100.000
 31.599     100.000
 31.609     100.000
 31.619     100.000
 31.629     100.000
 31.639     100.000
 31.649     100.000
 31.659     100.000
 31.669     100.000
 31.679     100.000
 31.689     100.000
 31.699     100.000
 31.709     100.000
 31.719     100.000
 31.729     100.000
 31.739     100.000
 31.749     100.000
 31.759     100.000
 31.769     100.000
 31.779     100.000
 31.789     100.000
 31.799     100.000
 31.809     100.000
 31.819     100.000
 31.829     100.000
 31.839     100.000
 31.849     100.000
 31.859     100.000
 31.869     100.000
 31.879     100.000
 31.889     100.000
 31.899     100.000
 31.909     100.000
 31.919     100.000
 31.929     100.000
 31.939     100.000
 31.949     100.000
 31.959     100.000
 31.969     100.000
 31.979     100.000
 31.990     100.000
 32.000     100.000
 32.010     100.000
 32.020     100.000
 32.030     100.000
 32.040     100.000
 32.050     100.000
 32.060     100.000
 32.070     100.000
 32.080     100.000
 32.090     100.000
 32.100     100.000
 32.110     100.000
 32.120     100.000
 32.130     100.000
 32.140     100.000
 32.150     100.000
 32.160     100.000
 32.170     100.000
 32.180     100.000
 32.190     100.000
 32.200     100.000
 32.210     100.000
 32.220     100.000
 32.230     100.000
 32.240     100.000
 32.250     100.000
 32.260     100.000
 32.270     100.000
 32.280     100.000
 32.290     100.000
 32.300     100.000
 32.310     100.000
 32.320     100.000
 32.330     100.000
 32.340     100.000
 32.350     100.000
 32.360     100.000
 32.370     100.000
 32.380     100.000
 32.390     100.000
 32.400     100.000
 32.410     100.000
 32.420     100.000
 32.430     100.000
 32.440     100.000
 32.450     100.000
 32.460     100.000
 32.470     100.000
 32.480     100.000
 32.490     100.000
 32.500     100.000
 32.510     100.000
 32.520     100.000
 32.530     100.000
 32.541     100.000
 32.551     100.000
 32.561     100.000
 32.571     100.000
 32.581     100.000
 32.591     100.000
 32.601     100.000
 32.611     100.000
 32.621     100.000
 32.631     100.000
 32.641     100.000
 32.651     100.000
 32.661     100.000
 32.671     100.000
 32.681     100.000
 32.691     100.000
 32.701     100.000
 32.711     100.000
 32.721     100.000
 32.731     100.000
 32.741     100.000
 32.751     100.000
 32.761     100.000
 32.771     100.000
 32.781     100.000
 32.791     100.000
 32.801     100.000
 32.811     100.000
 32.821     100.000
 32.831     100.000
 32.841     100.000
 32.851     100.000
 32.861     100.000
 32.871     100.000
 32.881     100.000
 32.891     100.000
 32.901     100.000
 32.911     100.000
 32.921     100.000
 32.931     100.000
 32.941     100.000
 32.951     100.000
 32.961     100.000
 32.971     100.000
 32.981     100.000
 32.991     100.000
 33.001     100.000
 33.011     100.000
 33.021     100.000
 33.031     100.000
 33.041     100.000
 33.051     100.000
 33.061     100.000
 33.071     100.000
 33.081     100.000
 33.091     100.000
 33.102     100.000
 33.112     100.000
 33.122     100.000
 33.132     100.000
 33.142     100.000
 33.152     100.000
 33.162     100.000
 33.172     100.000
 33.182     100.000
 33.192     100.000
 33.202     100.000
 33.212     100.000
 33.222     100.000
 33.232     100.000
 33.242     100.000
 33.252     100.000
 33.262     100.000
 33.272     100.000
 33.282     100.000
 33.292     100.000
 33.302     100.000
 33.312     100.000
 33.322     100.000
 33.332     100.000
 33.342     100.000
 33.352     100.000
 33.362     100.000
 33.372     100.000
 33.382     100.000
 33.392     100.000
 33.402     100.000
 33.412     100.000
 33.422     100.000
 33.432     100.000
 33.442     100.000
 33.452     100.000
 33.462     100.000
 33.472     100.000
 33.482     100.000
 33.492     100.000
 33.502     100.000
 33.512     100.000
 33.522     100.000
 33.532     100.000
 33.542     100.000
 33.552     100.000
 33.562     100.000
 33.572     100.000
 33.582     100.000
 33.592     100.000
 33.602     100.000
 33.612     100.000
 33.622     100.000
 33.632     100.000
 33.642     100.000
 33.652     100.000
 33.663     100.000
 33.673     100.000
 33.683     100.000
 33.693     100.000
 33.703     100.000
 33.713     100.000
 33.723     100.000
 33.733     100.000
 33.743     100.000
 33.753     100.000
 33.763     100.000
 33.773     100.000
 33.783     100.000
 33.793     100.000
 33.803     100.000
 33.813     100.000
 33.823     100.000
 33.833     100.000
 33.843     100.000
 33.853     100.000
 33.863     100.000
 33.873     100.000
 33.883     100.000
 33.893     100.000
 33.903     100.000
 33.913     100.000
 33.923     100.000
 33.933     100.000
 33.943     100.000
 33.953     100.000
 33.963     100.000
 33.973     100.000
 33.983     100.000
 33.993     100.000
 34.003     100.000
 34.013     100.000
 34.023     100.000
 34.033     100.000
 34.043     100.000
 34.053     100.000
 34.063     100.000
 34.073     100.000
 34.083     100.000
 34.093     100.000
 34.103     100.000
 34.113     100.000
 34.123     100.000
 34.133     100.000
 34.143     100.000
 34.153     100.000
 34.163     100.000
 34.173     100.000
 34.183     100.000
 34.193     100.000
 34.203     100.000
 34.214     100.000
 34.224     100.000
 34.234     100.000
 34.244     100.000
 34.254     100.000
 34.264     100.000
 34.274     100.000
 34.284     100.000
 34.294     100.000
 34.304     100.000
 34.314     100.000
 34.324     100.000
 34.334     100.000
 34.344     100.000
 34.354     100.000
 34.364     100.000
 34.374     100.000
 34.384     100.000
 34.394     100.000
 34.404     100.000
 34.414     100.000
 34.424     100.000
 34.434     100.000
 34.444     100.000
 34.454     100.000
 34.464     100.000
 34.474     100.000
 34.484     100.000
 34.494     100.000
 34.504     100.000
 34.514     100.000
 34.524     100.000
 34.534     100.000
 34.544     100.000
 34.554     100.000
 34.564     100.000
 34.574     100.000
 34.584     100.000
 34.594     100.000
 34.604     100.000
 34.614     100.000
 34.624     100.000
 34.634     100.000
 34.644     100.000
 34.654     100.000
 34.664     100.000
 34.674     100.000
 34.684     100.000
 34.694     100.000
 34.704     100.000
 34.714     100.000
 34.724     100.000
 34.734     100.000
 34.744     100.000
 34.754     100.000
 34.764     100.000
 34.775     100.000
 34.785     100.000
 34.795     100.000
 34.805     100.000
 34.815     100.000
 34.825     100.000
 34.835     100.000
 34.845     100.000
 34.855     100.000
 34.865     100.000
 34.875     100.000
 34.885     100.000
 34.895     100.000
 34.905     100.000
 34.915     100.000
 34.925     100.000
 34.935     100.000
 34.945     100.000
 34.955     100.000
 34.965     100.000
 34.975     100.000
 34.985     100.000
 34.995     100.000
 35.005     100.000
 35.015     100.000
 35.025     100.000
 35.035     100.000
 35.045     100.000
 35.055     100.000
 35.065     100.000
 35.075     100.000
 35.085     100.000
 35.095     100.000
 35.105     100.000
 35.115     100.000
 35.125     100.000
 35.135     100.000
 35.145     100.000
 35.155     100.000
 35.165     100.000
 35.175     100.000
 35.185     100.000
 35.195     100.000
 35.205     100.000
 35.215     100.000
 35.225     100.000
 35.235     100.000
 35.245     100.000
 35.255     100.000
 35.265     100.000
 35.275     100.000
 35.285     100.000
 35.295     100.000
 35.305     100.000
 35.315     100.000
 35.326     100.000
 35.336     100.000
 35.346     100.000
 35.356     100.000
 35.366     100.000
 35.376     100.000
 35.386     100.000
 35.396     100.000
 35.406     100.000
 35.416     100.000
 35.426     100.000
 35.436     100.000
 35.446     100.000
 35.456     100.000
 35.466     100.000
 35.476     100.000
 35.486     100.000
 35.496     100.000
 35.506     100.000
 35.516     100.000
 35.526     100.000
 35.536     100.000
 35.546     100.000
 35.556     100.000
 35.566     100.000
 35.576     100.000
 35.586     100.000
 35.596     100.000
 35.606     100.000
 35.616     100.000
 35.626     100.000
 35.636     100.000
 35.646     100.000
 35.656     100.000
 35.666     100.000
 35.676     100.000
 35.686     100.000
 35.696     100.000
 35.706     100.000
 35.716     100.000
 35.726     100.000
 35.736     100.000
 35.746     100.000
 35.756     100.000
 35.766     100.000
 35.776     100.000
 35.786     100.000
 35.796     100.000
 35.806     100.000
 35.816     100.000
 35.826     100.000
 35.836     100.000
 35.846     100.000
 35.856     100.000
 35.866     100.000
 35.876     100.000
 35.887     100.000
 35.897     100.000
 35.907     100.000
 35.917     100.000
 35.927     100.000
 35.937     100.000
 35.947     100.000
 35.957     100.000
 35.967     100.000
 35.977     100.000
 35.987     100.000
 35.997     100.000
 36.007     100.000
 36.017     100.000
 36.027     100.000
 36.037     100.000
 36.047     100.000
 36.057     100.000
 36.067     100.000
 36.077     100.000
 36.087     100.000
 36.097     100.000
 36.107     100.000
 36.117     100.000
 36.127     100.000
 36.137     100.000
 36.147     100.000
 36.157     100.000
 36.167     100.000
 36.177     100.000
 36.187     100.000
 36.197     100.000
 36.207     100.000
 36.217     100.000
 36.227     100.000
 36.237     100.000
 36.247     100.000
 36.257     100.000
 36.267     100.000
 36.277     100.000
 36.287     100.000
 36.297     100.000
 36.307     100.000
 36.317     100.000
 36.327     100.000
 36.337     100.000
 36.347     100.000
 36.357     100.000
 36.367     100.000
 36.377     100.000
 36.387     100.000
 36.397     100.000
 36.407     100.000
 36.417     100.000
 36.427     100.000
 36.438     100.000
 36.448     100.000
 36.458     100.000
 36.468     100.000
 36.478     100.000
 36.488     100.000
 36.498     100.000
 36.508     100.000
 36.518     100.000
 36.528     100.000
 36.538     100.000
 36.548     100.000
 36.558     100.000
 36.568     100.000
 36.578     100.000
 36.588     100.000
 36.598     100.000
 36.608     100.000
 36.618     100.000
 36.628     100.000
 36.638     100.000
 36.648     100.000
 36.658     100.000
 36.668     100.000
 36.678     100.000
 36.688     100.000
 36.698     100.000
 36.708     100.000
 36.718     100.000
 36.728     100.000
 36.738     100.000
 36.748     100.000
 36.758     100.000
 36.768     100.000
 36.778     100.000
 36.788     100.000
 36.798     100.000
 36.808     100.000
 36.818     100.000
 36.828     100.000
 36.838     100.000
 36.848     100.000
 36.858     100.000
 36.868     100.000
 36.878     100.000
 36.888     100.000
 36.898     100.000
 36.908     100.000
 36.918     100.000
 36.928     100.000
 36.938     100.000
 36.948     100.000
 36.958     100.000
 36.968     100.000
 36.978     100.000
 36.988     100.000
 36.999     100.000
 37.009     100.000
 37.019     100.000
 37.029     100.000
 37.039     100.000
 37.049     100.000
 37.059     100.000
 37.069     100.000
 37.079     100.000
 37.089     100.000
 37.099     100.000
 37.109     100.000
 37.119     100.000
 37.129     100.000
 37.139     100.000
 37.149     100.000
 37.159     100.000
 37.169     100.000
 37.179     100.000
 37.189     100.000
 37.199     100.000
 37.209     100.000
 37.219     100.000
 37.229     100.000
 37.239     100.000
 37.249     100.000
 37.259     100.000
 37.269     100.000
 37.279     100.000
 37.289     100.000
 37.299     100.000
 37.309     100.000
 37.319     100.000
 37.329     100.000
 37.339     100.000
 37.349     100.000
 37.359     100.000
 37.369     100.000
 37.379     100.000
 37.389     100.000
 37.399     100.000
 37.409     100.000
 37.419     100.000
 37.429     100.000
 37.439     100.000
 37.449     100.000
 37.459     100.000
 37.469     100.000
 37.479     100.000
 37.489     100.000
 37.499     100.000
 37.509     100.000
 37.519     100.000
 37.529     100.000
 37.539     100.000
 37.549     100.000
 37.560     100.000
 37.570     100.000
 37.580     100.000
 37.590     100.000
 37.600     100.000
 37.610     100.000
 37.620     100.000
 37.630     100.000
 37.640     100.000
 37.650     100.000
 37.660     100.000
 37.670     100.009
 37.680     100.025
 37.690     100.069
 37.700     100.179
 37.710     100.441
 37.720     101.029
 37.730     102.270
 37.740     104.738
 37.750     109.352
 37.760     117.461
 37.770     130.842
 37.780     151.520
 37.790     181.401
 37.800     221.653
 37.810     271.969
 37.820     329.937
 37.830     390.829
 37.840     447.901
 37.850     493.647
 37.860     521.301
 37.870     526.493
 37.880     508.380
 37.890     469.854
 37.900     416.841
 37.910     356.736
 37.920     296.773
 37.930     242.652
 37.940     197.819
 37.950     163.446
 37.960     138.916
 37.970     122.582
 37.980     112.395
 37.990     106.435
 38.000     103.160
 38.010     101.468
 38.020     100.645
 38.030     100.268
 38.040     100.105
 38.050     100.039
 38.060     100.014
 38.070     100.000
 38.080     100.000
 38.090     100.000
 38.100     100.000
 38.111     100.000
 38.121     100.000
 38.131     100.000
 38.141     100.000
 38.151     100.000
 38.161     100.000
 38.171     100.000
 38.181     100.000
 38.191     100.000
 38.201     100.000
 38.211     100.000
 38.221     100.000
 38.231     100.000
 38.241     100.000
 38.251     100.000
 38.261     100.000
 38.271     100.000
 38.281     100.000
 38.291     100.000
 38.301     100.000
 38.311     100.000
 38.321     100.000
 38.331     100.000
 38.341     100.000
 38.351     100.000
 38.361     100.000
 38.371     100.000
 38.381     100.000
 38.391     100.000
 38.401     100.000
 38.411     100.000
 38.421     100.000
 38.431     100.000
 38.441     100.000
 38.451     100.000
 38.461     100.000
 38.471     100.000
 38.481     100.000
 38.491     100.000
 38.501     100.000
 38.511     100.000
 38.521     100.000
 38.531     100.000
 38.541     100.000
 38.551     100.000
 38.561     100.000
 38.571     100.000
 38.581     100.000
 38.591     100.000
 38.601     100.000
 38.611     100.000
 38.621     100.000
 38.631     100.000
 38.641     100.000
 38.651     100.000
 38.661     100.000
 38.672     100.000
 38.682     100.000
 38.692     100.000
 38.702     100.000
 38.712     100.000
 38.722     100.000
 38.732     100.000
 38.742     100.000
 38.752     100.000
 38.762     100.000
 38.772     100.000
 38.782     100.000
 38.792     100.000
 38.802     100.000
 38.812     100.000
 38.822     100.000
 38.832     100.000
 38.842     100.000
 38.852     100.000
 38.862     100.000
 38.872     100.000
 38.882     100.000
 38.892     100.000
 38.902     100.000
 38.912     100.000
 38.922     100.000
 38.932     100.000
 38.942     100.000
 38.952     100.000
 38.962     100.000
 38.972     100.000
 38.982     100.000
 38.992     100.000
 39.002     100.000
 39.012     100.000
 39.022     100.000
 39.032     100.000
 39.042     100.000
 39.052     100.000
 39.062     100.000
 39.072     100.000
 39.082     100.000
 39.092     100.000
 39.102     100.000
 39.112     100.000
 39.122     100.000
 39.132     100.000
 39.142     100.000
 39.152     100.000
 39.162     100.000
 39.172     100.000
 39.182     100.000
 39.192     100.000
 39.202     100.000
 39.212     100.000
 39.223     100.000
 39.233     100.000
 39.243     100.000
 39.253     100.000
 39.263     100.000
 39.273     100.000
 39.283     100.000
 39.293     100.000
 39.303     100.000
 39.313     100.000
 39.323     100.000
 39.333     100.000
 39.343     100.000
 39.353     100.000
 39.363     100.000
 39.373     100.000
 39.383     100.000
 39.393     100.000
 39.403     100.000
 39.413     100.000
 39.423     100.000
 39.433     100.000
 39.443     100.000
 39.453     100.000
 39.463     100.000
 39.473     100.000
 39.483     100.000
 39.493     100.000
 39.503     100.000
 39.513     100.000
 39.523     100.000
 39.533     100.000
 39.543     100.000
 39.553     100.000
 39.563     100.000
 39.573     100.000
 39.583     100.000
 39.593     100.000
 39.603     100.000
 39.613     100.000
 39.623     100.000
 39.633     100.000
 39.643     100.000
 39.653     100.000
 39.663     100.000
 39.673     100.000
 39.683     100.000
 39.693     100.000
 39.703     100.000
 39.713     100.000
 39.723     100.000
 39.733     100.000
 39.743     100.000
 39.753     100.000
 39.763     100.000
 39.773     100.000
 39.784     100.000
 39.794     100.000
 39.804     100.000
 39.814     100.000
 39.824     100.000
 39.834     100.000
 39.844     100.000
 39.854     100.000
 39.864     100.000
 39.874     100.000
 39.884     100.000
 39.894     100.000
 39.904     100.000
 39.914     100.000
 39.924     100.000
 39.934     100.000
 39.944     100.000
 39.954     100.000
 39.964     100.000
 39.974     100.000
 39.984     100.000
 39.994     100.000
 40.004     100.000
 40.014     100.000
 40.024     100.000
 40.034     100.000
 40.044     100.000
 40.054     100.000
 40.064     100.000
 40.074     100.000
 40.084     100.000
 40.094     100.000
 40.104     100.000
 40.114     100.000
 40.124     100.000
 40.134     100.000
 40.144     100.000
 40.154     100.000
 40.164     100.000
 40.174     100.000
 40.184     100.000
 40.194     100.000
 40.204     100.000
 40.214     100.000
 40.224     100.000
 40.234     100.000
 40.244     100.000
 40.254     100.000
 40.264     100.000
 40.274     100.000
 40.284     100.000
 40.294     100.000
 40.304     100.000
 40.314     100.000
 40.324     100.000
 40.335     100.000
 40.345     100.000
 40.355     100.000
 40.365     100.000
 40.375     100.000
 40.385     100.000
 40.395     100.000
 40.405     100.000
 40.415     100.000
 40.425     100.000
 40.435     100.000
 40.445     100.000
 40.455     100.000
 40.465     100.000
 40.475     100.000
 40.485     100.000
 40.495     100.000
 40.505     100.000
 40.515     100.000
 40.525     100.000
 40.535     100.000
 40.545     100.000
 40.555     100.000
 40.565     100.000
 40.575     100.000
 40.585     100.000
 40.595     100.000
 40.605     100.000
 40.615     100.000
 40.625     100.000
 40.635     100.000
 40.645     100.000
 40.655     100.000
 40.665     100.000
 40.675     100.000
 40.685     100.000
 40.695     100.000
 40.705     100.000
 40.715     100.000
 40.725     100.000
 40.735     100.000
 40.745     100.000
 40.755     100.000
 40.765     100.000
 40.775     100.000
 40.785     100.000
 40.795     100.000
 40.805     100.000
 40.815     100.000
 40.825     100.000
 40.835     100.000
 40.845     100.000
 40.855     100.000
 40.865     100.000
 40.875     100.000
 40.885     100.000
 40.896     100.000
 40.906     100.000
 40.916     100.000
 40.926     100.000
 40.936     100.000
 40.946     100.000
 40.956     100.000
 40.966     100.000
 40.976     100.000
 40.986     100.000
 40.996     100.000
 41.006     100.000
 41.016     100.000
 41.026     100.000
 41.036     100.000
 41.046     100.000
 41.056     100.000
 41.066     100.000
 41.076     100.000
 41.086     100.000
 41.096     100.000
 41.106     100.000
 41.116     100.000
 41.126     100.000
 41.136     100.000
 41.146     100.000
 41.156     100.000
 41.166     100.000
 41.176     100.000
 41.186     100.000
 41.196     100.000
 41.206     100.000
 41.216     100.000
 41.226     100.000
 41.236     100.000
 41.246     100.000
 41.256     100.000
 41.266     100.000
 41.276     100.000
 41.286     100.000
 41.296     100.000
 41.306     100.000
 41.316     100.000
 41.326     100.000
 41.336     100.000
 41.346     100.000
 41.356     100.000
 41.366     100.000
 41.376     100.000
 41.386     100.000
 41.396     100.000
 41.406     100.000
 41.416     100.000
 41.426     100.000
 41.436     100.000
 41.447     100.000
 41.457     100.000
 41.467     100.000
 41.477     100.000
 41.487     100.000
 41.497     100.000
 41.507     100.000
 41.517     100.000
 41.527     100.000
 41.537     100.000
 41.547     100.000
 41.557     100.000
 41.567     100.000
 41.577     100.000
 41.587     100.000
 41.597     100.000
 41.607     100.000
 41.617     100.000
 41.627     100.000
 41.637     100.000
 41.647     100.000
 41.657     100.000
 41.667     100.000
 41.677     100.000
 41.687     100.000
 41.697     100.000
 41.707     100.000
 41.717     100.000
 41.727     100.000
 41.737     100.000
 41.747     100.000
 41.757     100.000
 41.767     100.000
 41.777     100.000
 41.787     100.000
 41.797     100.000
 41.807     100.000
 41.817     100.000
 41.827     100.000
 41.837     100.000
 41.847     100.000
 41.857     100.000
 41.867     100.000
 41.877     100.000
 41.887     100.000
 41.897     100.000
 41.907     100.000
 41.917     100.000
 41.927     100.000
 41.937     100.000
 41.947     100.000
 41.957     100.000
 41.967     100.000
 41.977     100.000
 41.987     100.000
 41.997     100.000
 42.008     100.000
 42.018     100.000
 42.028     100.000
 42.038     100.000
 42.048     100.000
 42.058     100.000
 42.068     100.000
 42.078     100.000
 42.088     100.000
 42.098     100.000
 42.108     100.000
 42.118     100.000
 42.128     100.000
 42.138     100.000
 42.148     100.000
 42.158     100.000
 42.168     100.000
 42.178     100.000
 42.188     100.000
 42.198     100.000
 42.208     100.000
 42.218     100.000
 42.228     100.000
 42.238     100.000
 42.248     100.000
 42.258     100.000
 42.268     100.000
 42.278     100.000
 42.288     100.000
 42.298     100.000
 42.308     100.000
 42.318     100.000
 42.328     100.000
 42.338     100.000
 42.348     100.000
 42.358     100.000
 42.368     100.000
 42.378     100.000
 42.388     100.000
 42.398     100.000
 42.408     100.000
 42.418     100.000
 42.428     100.000
 42.438     100.000
 42.448     100.000
 42.458     100.000
 42.468     100.000
 42.478     100.000
 42.488     100.000
 42.498     100.000
 42.508     100.000
 42.518     100.000
 42.528     100.000
 42.538     100.000
 42.548     100.000
 42.558     100.000
 42.569     100.000
 42.579     100.000
 42.589     100.000
 42.599     100.000
 42.609     100.000
 42.619     100.000
 42.629     100.000
 42.639     100.000
 42.649     100.000
 42.659     100.000
 42.669     100.000
 42.679     100.000
 42.689     100.000
 42.699     100.000
 42.709     100.000
 42.719     100.000
 42.729     100.000
 42.739     100.000
 42.749     100.000
 42.759     100.000
 42.769     100.000
 42.779     100.000
 42.789     100.000
 42.799     100.000
 42.809     100.000
 42.819     100.000
 42.829     100.000
 42.839     100.000
 42.849     100.000
 42.859     100.000
 42.869     100.000
 42.879     100.000
 42.889     100.000
 42.899     100.000
 42.909     100.000
 42.919     100.000
 42.929     100.000
 42.939     100.000
 42.949     100.000
 42.959     100.000
 42.969     100.000
 42.979     100.000
 42.989     100.000
 42.999     100.000
 43.009     100.000
 43.019     100.000
 43.029     100.000
 43.039     100.000
 43.049     100.000
 43.059     100.000
 43.069     100.000
 43.079     100.000
 43.089     100.000
 43.099     100.000
 43.109     100.000
 43.120     100.000
 43.130     100.000
 43.140     100.000
 43.150     100.000
 43.160     100.000
 43.170     100.000
 43.180     100.000
 43.190     100.000
 43.200     100.000
 43.210     100.000
 43.220     100.000
 43.230     100.000
 43.240     100.000
 43.250     100.000
 43.260     100.000
 43.270     100.000
 43.280     100.000
 43.290     100.000
 43.300     100.000
 43.310     100.000
 43.320     100.000
 43.330     100.000
 43.340     100.000
 43.350     100.000
 43.360     100.000
 43.370     100.000
 43.380     100.000
 43.390     100.000
 43.400     100.000
 43.410     100.000
 43.420     100.000
 43.430     100.000
 43.440     100.000
 43.450     100.000
 43.460     100.000
 43.470     100.000
 43.480     100.000
 43.490     100.000
 43.500     100.031
 43.510     100.091
 43.520     100.248
 43.530     100.641
 43.540     101.565
 43.550     103.617
 43.560     107.905
 43.570     116.342
 43.580     131.961
 43.590     159.111
 43.600     203.406
 43.610     271.102
 43.620     367.794
 43.630     496.442
 43.640     655.192
 43.650     835.326
 43.660    1021.193
 43.670    1191.578
 43.681    1323.469
 43.691    1397.074
 43.701    1400.667
 43.711    1333.662
 43.721    1206.777
 43.731    1039.209
 43.741     853.887
 43.751     672.425
 43.761     511.234
 43.771     379.695
 43.781     280.653
 43.791     211.914
 43.801     168.820
 43.811     146.369
 43.821     140.728
 43.831     149.929
 43.841     173.784
 43.851     213.195
 43.861     268.986
 43.871     340.535
 43.881     424.560
 43.891     514.517
 43.901     600.772
 43.911     672.279
 43.921     718.599
 43.931     732.476
 43.941     711.664
 43.951     659.520
 43.961     584.087
 43.971     496.173
 43.981     406.676
 43.991     324.547
 44.001     255.514
 44.011     201.875
 44.021     163.112
 44.031     136.988
 44.041     120.505
 44.051     110.752
 44.061     105.333
 44.071     102.502
 44.081     101.110
 44.091     100.466
 44.101     100.185
 44.111     100.069
 44.121     100.025
 44.131     100.000
 44.141     100.000
 44.151     100.000
 44.161     100.000
 44.171     100.000
 44.181     100.000
 44.191     100.000
 44.201     100.000
 44.211     100.000
 44.221     100.000
 44.232     100.000
 44.242     100.000
 44.252     100.000
 44.262     100.000
 44.272     100.000
 44.282     100.000
 44.292     100.000
 44.302     100.000
 44.312     100.000
 44.322     100.000
 44.332     100.000
 44.342     100.000
 44.352     100.000
 44.362     100.000
 44.372     100.000
 44.382     100.000
 44.392     100.000
 44.402     100.000
 44.412     100.000
 44.422     100.000
 44.432     100.000
 44.442     100.000
 44.452     100.000
 44.462     100.000
 44.472     100.000
 44.482     100.000
 44.492     100.000
 44.502     100.000
 44.512     100.000
 44.522     100.000
 44.532     100.000
 44.542     100.000
 44.552     100.000
 44.562     100.000
 44.572     100.000
 44.582     100.000
 44.592     100.000
 44.602     100.000
 44.612     100.000
 44.622     100.000
 44.632     100.000
 44.642     100.000
 44.652     100.000
 44.662     100.000
 44.672     100.000
 44.682     100.000
 44.692     100.000
 44.702     100.000
 44.712     100.000
 44.722     100.000
 44.732     100.000
 44.742     100.000
 44.752     100.000
 44.762     100.000
 44.772     100.000
 44.782     100.000
 44.793     100.000
 44.803     100.000
 44.813     100.000
 44.823     100.000
 44.833     100.000
 44.843     100.000
 44.853     100.000
 44.863     100.000
 44.873     100.000
 44.883     100.000
 44.893     100.000
 44.903     100.000
 44.913     100.000
 44.923     100.000
 44.933     100.000
 44.943     100.000
 44.953     100.000
 44.963     100.000
 44.973     100.000
 44.983     100.000
 44.993     100.000
 45.003     100.000
 45.013     100.000
 45.023     100.000
 45.033     100.000
 45.043     100.000
 45.053     100.000
 45.063     100.000
 45.073     100.000
 45.083     100.000
 45.093     100.000
 45.103     100.000
 45.113     100.000
 45.123     100.000
 45.133     100.000
 45.143     100.000
 45.153     100.000
 45.163     100.000
 45.173     100.000
 45.183     100.000
 45.193     100.000
 45.203     100.000
 45.213     100.000
 45.223     100.000
 45.233     100.000
 45.243     100.000
 45.253     100.000
 45.263     100.000
 45.273     100.000
 45.283     100.000
 45.293     100.000
 45.303     100.000
 45.313     100.000
 45.323     100.000
 45.333     100.000
 45.344     100.000
 45.354     100.000
 45.364     100.000
 45.374     100.000
 45.384     100.000
 45.394     100.000
 45.404     100.000
 45.414     100.000
 45.424     100.000
 45.434     100.000
 45.444     100.000
 45.454     100.000
 45.464     100.000
 45.474     100.000
 45.484     100.000
 45.494     100.000
 45.504     100.000
 45.514     100.000
 45.524     100.000
 45.534     100.000
 45.544     100.000
 45.554     100.000
 45.564     100.000
 45.574     100.000
 45.584     100.000
 45.594     100.000
 45.604     100.000
 45.614     100.000
 45.624     100.000
 45.634     100.000
 45.644     100.000
 45.654     100.000
 45.664     100.000
 45.674     100.000
 45.684     100.000
 45.694     100.000
 45.704     100.000
 45.714     100.000
 45.724     100.000
 45.734     100.000
 45.744     100.000
 45.754     100.000
 45.764     100.000
 45.774     100.000
 45.784     100.000
 45.794     100.000
 45.804     100.000
 45.814     100.000
 45.824     100.000
 45.834     100.000
 45.844     100.000
 45.854     100.000
 45.864     100.000
 45.874     100.000
 45.884     100.000
 45.894     100.000
 45.905     100.000
 45.915     100.000
 45.925     100.000
 45.935     100.000
 45.945     100.000
 45.955     100.000
 45.965     100.000
 45.975     100.000
 45.985     100.000
 45.995     100.000
 46.005     100.000
 46.015     100.000
 46.025     100.000
 46.035     100.000
 46.045     100.000
 46.055     100.000
 46.065     100.000
 46.075     100.000
 46.085     100.000
 46.095     100.000
 46.105     100.000
 46.115     100.000
 46.125     100.000
 46.135     100.000
 46.145     100.000
 46.155     100.000
 46.165     100.000
 46.175     100.000
 46.185     100.000
 46.195     100.000
 46.205     100.000
 46.215     100.000
 46.225     100.000
 46.235     100.000
 46.245     100.000
 46.255     100.000
 46.265     100.000
 46.275     100.000
 46.285     100.000
 46.295     100.000
 46.305     100.000
 46.315     100.000
 46.325     100.000
 46.335     100.000
 46.345     100.000
 46.355     100.000
 46.365     100.000
 46.375     100.000
 46.385     100.000
 46.395     100.000
 46.405     100.000
 46.415     100.000
 46.425     100.000
 46.435     100.000
 46.445     100.000
 46.456     100.000
 46.466     100.000
 46.476     100.000
 46.486     100.000
 46.496     100.000
 46.506     100.000
 46.516     100.000
 46.526     100.000
 46.536     100.000
 46.546     100.000
 46.556     100.000
 46.566     100.000
 46.576     100.000
 46.586     100.000
 46.596     100.000
 46.606     100.000
 46.616     100.000
 46.626     100.000
 46.636     100.000
 46.646     100.000
 46.656     100.000
 46.666     100.000
 46.676     100.000
 46.686     100.000
 46.696     100.000
 46.706     100.000
 46.716     100.000
 46.726     100.000
 46.736     100.000
 46.746     100.000
 46.756     100.000
 46.766     100.000
 46.776     100.000
 46.786     100.000
 46.796     100.000
 46.806     100.000
 46.816     100.000
 46.826     100.000
 46.836     100.000
 46.846     100.000
 46.856     100.000
 46.866     100.000
 46.876     100.000
 46.886     100.000
 46.896     100.000
 46.906     100.000
 46.916     100.000
 46.926     100.000
 46.936     100.000
 46.946     100.000
 46.956     100.000
 46.966     100.000
 46.976     100.000
 46.986     100.000
 46.996     100.000
 47.006     100.000
 47.017     100.000
 47.027     100.000
 47.037     100.000
 47.047     100.000
 47.057     100.000
 47.067     100.000
 47.077     100.000
 47.087     100.000
 47.097     100.000
 47.107     100.000
 47.117     100.000
 47.127     100.000
 47.137     100.000
 47.147     100.000
 47.157     100.000
 47.167     100.000
 47.177     100.000
 47.187     100.000
 47.197     100.000
 47.207     100.000
 47.217     100.000
 47.227     100.000
 47.237     100.000
 47.247     100.000
 47.257     100.000
 47.267     100.000
 47.277     100.000
 47.287     100.000
 47.297     100.000
 47.307     100.000
 47.317     100.000
 47.327     100.000
 47.337     100.000
 47.347     100.000
 47.357     100.000
 47.367     100.000
 47.377     100.000
 47.387     100.000
 47.397     100.000
 47.407     100.000
 47.417     100.000
 47.427     100.000
 47.437     100.000
 47.447     100.000
 47.457     100.000
 47.467     100.000
 47.477     100.000
 47.487     100.000
 47.497     100.000
 47.507     100.000
 47.517     100.000
 47.527     100.000
 47.537     100.000
 47.547     100.000
 47.557     100.000
 47.568     100.000
 47.578     100.000
 47.588     100.000
 47.598     100.000
 47.608     100.000
 47.618     100.000
 47.628     100.000
 47.638     100.000
 47.648     100.000
 47.658     100.000
 47.668     100.000
 47.678     100.000
 47.688     100.000
 47.698     100.000
 47.708     100.000
 47.718     100.000
 47.728     100.000
 47.738     100.000
 47.748     100.000
 47.758     100.000
 47.768     100.000
 47.778     100.000
 47.788     100.000
 47.798     100.000
 47.808     100.000
 47.818     100.000
 47.828     100.000
 47.838     100.000
 47.848     100.000
 47.858     100.000
 47.868     100.000
 47.878     100.000
 47.888     100.000
 47.898     100.000
 47.908     100.000
 47.918     100.000
 47.928     100.000
 47.938     100.000
 47.948     100.000
 47.958     100.000
 47.968     100.000
 47.978     100.000
 47.988     100.000
 47.998     100.000
 48.008     100.000
 48.018     100.000
 48.028     100.000
 48.038     100.000
 48.048     100.000
 48.058     100.000
 48.068     100.000
 48.078     100.000
 48.088     100.000
 48.098     100.000
 48.108     100.000
 48.118     100.000
 48.129     100.000
 48.139     100.000
 48.149     100.000
 48.159     100.000
 48.169     100.000
 48.179     100.000
 48.189     100.000
 48.199     100.000
 48.209     100.000
 48.219     100.000
 48.229     100.000
 48.239     100.000
 48.249     100.000
 48.259     100.000
 48.269     100.000
 48.279     100.000
 48.289     100.000
 48.299     100.000
 48.309     100.000
 48.319     100.000
 48.329     100.000
 48.339     100.000
 48.349     100.000
 48.359     100.000
 48.369     100.000
 48.379     100.000
 48.389     100.000
 48.399     100.000
 48.409     100.000
 48.419     100.000
 48.429     100.000
 48.439     100.000
 48.449     100.000
 48.459     100.000
 48.469     100.000
 48.479     100.000
 48.489     100.000
 48.499     100.000
 48.509     100.000
 48.519     100.000
 48.529     100.000
 48.539     100.000
 48.549     100.000
 48.559     100.000
 48.569     100.000
 48.579     100.000
 48.589     100.000
 48.599     100.000
 48.609     100.000
 48.619     100.000
 48.629     100.000
 48.639     100.000
 48.649     100.000
 48.659     100.000
 48.669     100.000
 48.679     100.000
 48.690     100.000
 48.700     100.000
 48.710     100.000
 48.720     100.000
 48.730     100.000
 48.740     100.000
 48.750     100.000
 48.760     100.000
 48.770     100.000
 48.780     100.000
 48.790     100.000
 48.800     100.000
 48.810     100.000
 48.820     100.000
 48.830     100.000
 48.840     100.000
 48.850     100.000
 48.860     100.000
 48.870     100.000
 48.880     100.000
 48.890     100.000
 48.900     100.000
 48.910     100.000
 48.920     100.000
 48.930     100.000
 48.940     100.000
 48.950     100.000
 48.960     100.000
 48.970     100.000
 48.980     100.000
 48.990     100.000
 49.000     100.000
 49.010     100.000
 49.020     100.000
 49.030     100.000
 49.040     100.000
 49.050     100.000
 49.060     100.000
 49.070     100.000
 49.080     100.000
 49.090     100.000
 49.100     100.000
 49.110     100.000
 49.120     100.000
 49.130     100.000
 49.140     100.000
 49.150     100.000
 49.160     100.000
 49.170     100.000
 49.180     100.000
 49.190     100.000
 49.200     100.000
 49.210     100.000
 49.220     100.000
 49.230     100.000
 49.241     100.000
 49.251     100.000
 49.261     100.000
 49.271     100.000
 49.281     100.000
 49.291     100.000
 49.301     100.000
 49.311     100.000
 49.321     100.000
 49.331     100.000
 49.341     100.000
 49.351     100.000
 49.361     100.000
 49.371     100.000
 49.381     100.000
 49.391     100.000
 49.401     100.000
 49.411     100.000
 49.421     100.000
 49.431     100.000
 49.441     100.000
 49.451     100.000
 49.461     100.000
 49.471     100.000
 49.481     100.000
 49.491     100.000
 49.501     100.000
 49.511     100.000
 49.521     100.000
 49.531     100.000
 49.541     100.000
 49.551     100.000
 49.561     100.000
 49.571     100.000
 49.581     100.000
 49.591     100.000
 49.601     100.000
 49.611     100.000
 49.621     100.000
 49.631     100.000
 49.641     100.000
 49.651     100.000
 49.661     100.000
 49.671     100.000
 49.681     100.000
 49.691     100.000
 49.701     100.000
 49.711     100.000
 49.721     100.000
 49.731     100.000
 49.741     100.000
 49.751     100.000
 49.761     100.000
 49.771     100.000
 49.781     100.000
 49.791     100.000
 49.802     100.000
 49.812     100.000
 49.822     100.000
 49.832     100.000
 49.842     100.000
 49.852     100.000
 49.862     100.000
 49.872     100.000
 49.882     100.000
 49.892     100.000
 49.902     100.000
 49.912     100.000
 49.922     100.000
 49.932     100.000
 49.942     100.000
 49.952     100.000
 49.962     100.000
 49.972     100.000
 49.982     100.000
 49.992     100.000
 50.002     100.000
 50.012     100.000
 50.022     100.000
 50.032     100.000
 50.042     100.000
 50.052     100.000
 50.062     100.000
 50.072     100.000
 50.082     100.000
 50.092     100.000
 50.102     100.000
 50.112     100.000
 50.122     100.000
 50.132     100.000
 50.142     100.000
 50.152     100.000
 50.162     100.000
 50.172     100.000
 50.182     100.000
 50.192     100.000
 50.202     100.000
 50.212     100.000
 50.222     100.000
 50.232     100.000
 50.242     100.000
 50.252     100.000
 50.262     100.000
 50.272     100.000
 50.282     100.000
 50.292     100.000
 50.302     100.000
 50.312     100.000
 50.322     100.000
 50.332     100.000
 50.342     100.000
 50.353     100.000
 50.363     100.000
 50.373     100.000
 50.383     100.000
 50.393     100.000
 50.403     100.000
 50.413     100.000
 50.423     100.000
 50.433     100.000
 50.443     100.000
 50.453     100.000
 50.463     100.000
 50.473     100.000
 50.483     100.000
 50.493     100.000
 50.503     100.000
 50.513     100.000
 50.523     100.000
 50.533     100.000
 50.543     100.000
 50.553     100.000
 50.563     100.000
 50.573     100.000
 50.583     100.000
 50.593     100.000
 50.603     100.000
 50.613     100.000
 50.623     100.000
 50.633     100.000
 50.643     100.000
 50.653     100.000
 50.663     100.000
 50.673     100.000
 50.683     100.000
 50.693     100.000
 50.703     100.000
 50.713     100.000
 50.723     100.000
 50.733     100.000
 50.743     100.000
 50.753     100.000
 50.763     100.000
 50.773     100.000
 50.783     100.000
 50.793     100.000
 50.803     100.000
 50.813     100.000
 50.823     100.000
 50.833     100.000
 50.843     100.000
 50.853     100.000
 50.863     100.000
 50.873     100.000
 50.883     100.000
 50.893     100.000
 50.903     100.000
 50.914     100.000
 50.924     100.000
 50.934     100.000
 50.944     100.000
 50.954     100.000
 50.964     100.000
 50.974     100.000
 50.984     100.000
 50.994     100.000
 51.004     100.000
 51.014     100.000
 51.024     100.000
 51.034     100.000
 51.044     100.000
 51.054     100.000
 51.064     100.000
 51.074     100.000
 51.084     100.000
 51.094     100.000
 51.104     100.000
 51.114     100.000
 51.124     100.000
 51.134     100.000
 51.144     100.000
 51.154     100.000
 51.164     100.000
 51.174     100.000
 51.184     100.000
 51.194     100.000
 51.204     100.000
 51.214     100.000
 51.224     100.000
 51.234     100.000
 51.244     100.000
 51.254     100.000
 51.264     100.000
 51.274     100.000
 51.284     100.000
 51.294     100.000
 51.304     100.000
 51.314     100.000
 51.324     100.000
 51.334     100.000
 51.344     100.000
 51.354     100.000
 51.364     100.000
 51.374     100.000
 51.384     100.000
 51.394     100.000
 51.404     100.000
 51.414     100.000
 51.424     100.000
 51.434     100.000
 51.444     100.000
 51.454     100.000
 51.465     100.000
 51.475     100.000
 51.485     100.000
 51.495     100.000
 51.505     100.000
 51.515     100.000
 51.525     100.000
 51.535     100.000
 51.545     100.000
 51.555     100.000
 51.565     100.000
 51.575     100.000
 51.585     100.000
 51.595     100.000
 51.605     100.000
 51.615     100.000
 51.625     100.000
 51.635     100.000
 51.645     100.000
 51.655     100.000
 51.665     100.000
 51.675     100.000
 51.685     100.000
 51.695     100.000
 51.705     100.000
 51.715     100.000
 51.725     100.000
 51.735     100.000
 51.745     100.000
 51.755     100.000
 51.765     100.000
 51.775     100.000
 51.785     100.000
 51.795     100.000
 51.805     100.000
 51.815     100.000
 51.825     100.000
 51.835     100.000
 51.845     100.000
 51.855     100.000
 51.865     100.000
 51.875     100.000
 51.885     100.000
 51.895     100.000
 51.905     100.000
 51.915     100.000
 51.925     100.000
 51.935     100.000
 51.945     100.000
 51.955     100.000
 51.965     100.000
 51.975     100.000
 51.985     100.000
 51.995     100.000
 52.005     100.000
 52.015     100.000
 52.026     100.000
 52.036     100.000
 52.046     100.000
 52.056     100.000
 52.066     100.000
 52.076     100.000
 52.086     100.000
 52.096     100.000
 52.106     100.000
 52.116     100.000
 52.126     100.000
 52.136     100.000
 52.146     100.000
 52.156     100.000
 52.166     100.000
 52.176     100.000
 52.186     100.000
 52.196     100.000
 52.206     100.000
 52.216     100.000
 52.226     100.000
 52.236     100.000
 52.246     100.000
 52.256     100.000
 52.266     100.000
 52.276     100.000
 52.286     100.000
 52.296     100.000
 52.306     100.000
 52.316     100.000
 52.326     100.000
 52.336     100.000
 52.346     100.000
 52.356     100.000
 52.366     100.000
 52.376     100.000
 52.386     100.000
 52.396     100.000
 52.406     100.000
 52.416     100.000
 52.426     100.000
 52.436     100.000
 52.446     100.000
 52.456     100.000
 52.466     100.000
 52.476     100.000
 52.486     100.000
 52.496     100.000
 52.506     100.000
 52.516     100.000
 52.526     100.000
 52.536     100.000
 52.546     100.000
 52.556     100.000
 52.566     100.000
 52.576     100.000
 52.587     100.000
 52.597     100.000
 52.607     100.000
 52.617     100.000
 52.627     100.000
 52.637     100.000
 52.647     100.000
 52.657     100.000
 52.667     100.000
 52.677     100.000
 52.687     100.000
 52.697     100.000
 52.707     100.000
 52.717     100.000
 52.727     100.000
 52.737     100.000
 52.747     100.000
 52.757     100.000
 52.767     100.000
 52.777     100.000
 52.787     100.000
 52.797     100.000
 52.807     100.000
 52.817     100.000
 52.827     100.000
 52.837     100.000
 52.847     100.000
 52.857     100.000
 52.867     100.000
 52.877     100.000
 52.887     100.000
 52.897     100.000
 52.907     100.000
 52.917     100.000
 52.927     100.000
 52.937     100.000
 52.947     100.000
 52.957     100.000
 52.967     100.000
 52.977     100.000
 52.987     100.000
 52.997     100.000
 53.007     100.000
 53.017     100.000
 53.027     100.000
 53.037     100.000
 53.047     100.000
 53.057     100.000
 53.067     100.000
 53.077     100.000
 53.087     100.000
 53.097     100.000
 53.107     100.000
 53.117     100.000
 53.127     100.000
 53.138     100.000
 53.148     100.000
 53.158     100.000
 53.168     100.000
 53.178     100.000
 53.188     100.000
 53.198     100.000
 53.208     100.000
 53.218     100.000
 53.228     100.000
 53.238     100.000
 53.248     100.000
 53.258     100.000
 53.268     100.000
 53.278     100.000
 53.288     100.000
 53.298     100.000
 53.308     100.000
 53.318     100.000
 53.328     100.000
 53.338     100.000
 53.348     100.000
 53.358     100.000
 53.368     100.000
 53.378     100.000
 53.388     100.000
 53.398     100.000
 53.408     100.000
 53.418     100.000
 53.428     100.000
 53.438     100.000
 53.448     100.000
 53.458     100.000
 53.468     100.000
 53.478     100.000
 53.488     100.000
 53.498     100.000
 53.508     100.000
 53.518     100.000
 53.528     100.000
 53.538     100.000
 53.548     100.000
 53.558     100.000
 53.568     100.000
 53.578     100.000
 53.588     100.000
 53.598     100.000
 53.608     100.000
 53.618     100.000
 53.628     100.000
 53.638     100.000
 53.648     100.000
 53.658     100.000
 53.668     100.000
 53.678     100.000
 53.688     100.000
 53.699     100.000
 53.709     100.000
 53.719     100.000
 53.729     100.000
 53.739     100.000
 53.749     100.000
 53.759     100.000
 53.769     100.000
 53.779     100.000
 53.789     100.000
 53.799     100.000
 53.809     100.000
 53.819     100.000
 53.829     100.000
 53.839     100.000
 53.849     100.000
 53.859     100.000
 53.869     100.000
 53.879     100.000
 53.889     100.000
 53.899     100.000
 53.909     100.000
 53.919     100.000
 53.929     100.000
 53.939     100.000
 53.949     100.000
 53.959     100.000
 53.969     100.000
 53.979     100.000
 53.989     100.000
 53.999     100.000
 54.009     100.000
 54.019     100.000
 54.029     100.000
 54.039     100.000
 54.049     100.000
 54.059     100.000
 54.069     100.000
 54.079     100.000
 54.089     100.000
 54.099     100.000
 54.109     100.000
 54.119     100.000
 54.129     100.000
 54.139     100.000
 54.149     100.000
 54.159     100.000
 54.169     100.000
 54.179     100.000
 54.189     100.000
 54.199     100.000
 54.209     100.000
 54.219     100.000
 54.229     100.000
 54.239     100.000
 54.250     100.000
 54.260     100.000
 54.270     100.000
 54.280     100.000
 54.290     100.000
 54.300     100.000
 54.310     100.000
 54.320     100.000
 54.330     100.000
 54.340     100.000
 54.350     100.000
 54.360     100.000
 54.370     100.000
 54.380     100.000
 54.390     100.000
 54.400     100.000
 54.410     100.000
 54.420     100.000
 54.430     100.000
 54.440     100.000
 54.450     100.000
 54.460     100.000
 54.470     100.000
 54.480     100.000
 54.490     100.000
 54.500     100.000
 54.510     100.000
 54.520     100.000
 54.530     100.000
 54.540     100.000
 54.550     100.000
 54.560     100.000
 54.570     100.000
 54.580     100.000
 54.590     100.000
 54.600     100.000
 54.610     100.000
 54.620     100.000
 54.630     100.000
 54.640     100.000
 54.650     100.000
 54.660     100.000
 54.670     100.000
 54.680     100.000
 54.690     100.000
 54.700     100.000
 54.710     100.000
 54.720     100.000
 54.730     100.000
 54.740     100.000
 54.750     100.000
 54.760     100.000
 54.770     100.000
 54.780     100.000
 54.790     100.000
 54.800     100.000
 54.811     100.000
 54.821     100.000
 54.831     100.000
 54.841     100.000
 54.851     100.000
 54.861     100.000
 54.871     100.000
 54.881     100.000
 54.891     100.000
 54.901     100.000
 54.911     100.000
 54.921     100.000
 54.931     100.000
 54.941     100.000
 54.951     100.000
 54.961     100.000
 54.971     100.000
 54.981     100.000
 54.991     100.000
 55.001     100.000
 55.011     100.000
 55.021     100.000
 55.031     100.000
 55.041     100.000
 55.051     100.000
 55.061     100.000
 55.071     100.000
 55.081     100.000
 55.091     100.000
 55.101     100.000
 55.111     100.000
 55.121     100.000
 55.131     100.000
 55.141     100.000
 55.151     100.000
 55.161     100.000
 55.171     100.000
 55.181     100.000
 55.191     100.000
 55.201     100.000
 55.211     100.000
 55.221     100.000
 55.231     100.000
 55.241     100.000
 55.251     100.000
 55.261     100.000
 55.271     100.000
 55.281     100.000
 55.291     100.000
 55.301     100.000
 55.311     100.000
 55.321     100.000
 55.331     100.000
 55.341     100.000
 55.351     100.000
 55.362     100.000
 55.372     100.000
 55.382     100.000
 55.392     100.000
 55.402     100.000
 55.412     100.000
 55.422     100.000
 55.432     100.000
 55.442     100.000
 55.452     100.000
 55.462     100.000
 55.472     100.000
 55.482     100.000
 55.492     100.000
 55.502     100.000
 55.512     100.000
 55.522     100.000
 55.532     100.000
 55.542     100.000
 55.552     100.000
 55.562     100.000
 55.572     100.000
 55.582     100.000
 55.592     100.000
 55.602     100.000
 55.612     100.000
 55.622     100.000
 55.632     100.000
 55.642     100.000
 55.652     100.000
 55.662     100.000
 55.672     100.000
 55.682     100.000
 55.692     100.000
 55.702     100.000
 55.712     100.000
 55.722     100.000
 55.732     100.000
 55.742     100.000
 55.752     100.000
 55.762     100.000
 55.772     100.000
 55.782     100.000
 55.792     100.000
 55.802     100.000
 55.812     100.000
 55.822     100.000
 55.832     100.000
 55.842     100.000
 55.852     100.000
 55.862     100.000
 55.872     100.000
 55.882     100.000
 55.892     100.000
 55.902     100.000
 55.912     100.000
 55.923     100.000
 55.933     100.000
 55.943     100.000
 55.953     100.000
 55.963     100.000
 55.973     100.000
 55.983     100.000
 55.993     100.000
 56.003     100.000
 56.013     100.000
 56.023     100.000
 56.033     100.000
 56.043     100.000
 56.053     100.000
 56.063     100.000
 56.073     100.000
 56.083     100.000
 56.093     100.000
 56.103     100.000
 56.113     100.000
 56.123     100.000
 56.133     100.000
 56.143     100.000
 56.153     100.000
 56.163     100.000
 56.173     100.000
 56.183     100.000
 56.193     100.000
 56.203     100.000
 56.213     100.000
 56.223     100.000
 56.233     100.000
 56.243     100.000
 56.253     100.000
 56.263     100.000
 56.273     100.000
 56.283     100.000
 56.293     100.000
 56.303     100.000
 56.313     100.000
 56.323     100.000
 56.333     100.000
 56.343     100.000
 56.353     100.000
 56.363     100.000
 56.373     100.000
 56.383     100.000
 56.393     100.000
 56.403     100.000
 56.413     100.000
 56.423     100.000
 56.433     100.000
 56.443     100.000
 56.453     100.000
 56.463     100.000
 56.474     100.000
 56.484     100.000
 56.494     100.000
 56.504     100.000
 56.514     100.000
 56.524     100.000
 56.534     100.000
 56.544     100.000
 56.554     100.000
 56.564     100.000
 56.574     100.000
 56.584     100.000
 56.594     100.000
 56.604     100.000
 56.614     100.000
 56.624     100.000
 56.634     100.000
 56.644     100.000
 56.654     100.000
 56.664     100.000
 56.674     100.000
 56.684     100.000
 56.694     100.000
 56.704     100.000
 56.714     100.000
 56.724     100.000
 56.734     100.000
 56.744     100.000
 56.754     100.000
 56.764     100.000
 56.774     100.000
 56.784     100.000
 56.794     100.000
 56.804     100.000
 56.814     100.000
 56.824     100.000
 56.834     100.000
 56.844     100.000
 56.854     100.000
 56.864     100.000
 56.874     100.000
 56.884     100.000
 56.894     100.000
 56.904     100.000
 56.914     100.000
 56.924     100.000
 56.934     100.000
 56.944     100.000
 56.954     100.000
 56.964     100.000
 56.974     100.000
 56.984     100.000
 56.994     100.000
 57.004     100.000
 57.014     100.000
 57.024     100.000
 57.035     100.000
 57.045     100.000
 57.055     100.000
 57.065     100.000
 57.075     100.000
 57.085     100.000
 57.095     100.000
 57.105     100.000
 57.115     100.000
 57.125     100.000
 57.135     100.000
 57.145     100.000
 57.155     100.000
 57.165     100.000
 57.175     100.000
 57.185     100.000
 57.195     100.000
 57.205     100.000
 57.215     100.000
 57.225     100.000
 57.235     100.000
 57.245     100.000
 57.255     100.000
 57.265     100.000
 57.275     100.000
 57.285     100.000
 57.295     100.000
 57.305     100.000
 57.315     100.000
 57.325     100.000
 57.335     100.000
 57.345     100.000
 57.355     100.000
 57.365     100.000
 57.375     100.000
 57.385     100.000
 57.395     100.000
 57.405     100.000
 57.415     100.000
 57.425     100.000
 57.435     100.000
 57.445     100.000
 57.455     100.000
 57.465     100.000
 57.475     100.000
 57.485     100.000
 57.495     100.000
 57.505     100.000
 57.515     100.000
 57.525     100.000
 57.535     100.000
 57.545     100.000
 57.555     100.000
 57.565     100.000
 57.575     100.000
 57.585     100.000
 57.596     100.000
 57.606     100.000
 57.616     100.000
 57.626     100.000
 57.636     100.000
 57.646     100.000
 57.656     100.000
 57.666     100.000
 57.676     100.000
 57.686     100.000
 57.696     100.000
 57.706     100.000
 57.716     100.000
 57.726     100.000
 57.736     100.000
 57.746     100.000
 57.756     100.000
 57.766     100.000
 57.776     100.000
 57.786     100.000
 57.796     100.000
 57.806     100.000
 57.816     100.000
 57.826     100.000
 57.836     100.000
 57.846     100.000
 57.856     100.000
 57.866     100.000
 57.876     100.000
 57.886     100.000
 57.896     100.000
 57.906     100.000
 57.916     100.000
 57.926     100.000
 57.936     100.000
 57.946     100.000
 57.956     100.000
 57.966     100.000
 57.976     100.000
 57.986     100.000
 57.996     100.000
 58.006     100.000
 58.016     100.000
 58.026     100.000
 58.036     100.000
 58.046     100.000
 58.056     100.000
 58.066     100.000
 58.076     100.000
 58.086     100.000
 58.096     100.000
 58.106     100.000
 58.116     100.000
 58.126     100.000
 58.136     100.000
 58.147     100.000
 58.157     100.000
 58.167     100.000
 58.177     100.000
 58.187     100.000
 58.197     100.000
 58.207     100.000
 58.217     100.000
 58.227     100.000
 58.237     100.000
 58.247     100.000
 58.257     100.000
 58.267     100.000
 58.277     100.000
 58.287     100.000
 58.297     100.000
 58.307     100.000
 58.317     100.000
 58.327     100.000
 58.337     100.000
 58.347     100.000
 58.357     100.000
 58.367     100.000
 58.377     100.000
 58.387     100.000
 58.397     100.000
 58.407     100.000
 58.417     100.000
 58.427     100.000
 58.437     100.000
 58.447     100.000
 58.457     100.000
 58.467     100.000
 58.477     100.000
 58.487     100.000
 58.497     100.000
 58.507     100.000
 58.517     100.000
 58.527     100.000
 58.537     100.000
 58.547     100.000
 58.557     100.000
 58.567     100.000
 58.577     100.000
 58.587     100.000
 58.597     100.000
 58.607     100.000
 58.617     100.000
 58.627     100.000
 58.637     100.000
 58.647     100.000
 58.657     100.000
 58.667     100.000
 58.677     100.000
 58.687     100.000
 58.697     100.000
 58.708     100.000
 58.718     100.000
 58.728     100.000
 58.738     100.000
 58.748     100.000
 58.758     100.000
 58.768     100.000
 58.778     100.000
 58.788     100.000
 58.798     100.000
 58.808     100.000
 58.818     100.000
 58.828     100.000
 58.838     100.000
 58.848     100.000
 58.858     100.000
 58.868     100.000
 58.878     100.000
 58.888     100.000
 58.898     100.000
 58.908     100.000
 58.918     100.000
 58.928     100.000
 58.938     100.000
 58.948     100.000
 58.958     100.000
 58.968     100.000
 58.978     100.009
 58.988     100.025
 58.998     100.067
 59.008     100.173
 59.018     100.420
 59.028     100.965
 59.038     102.097
 59.048     104.311
 59.058     108.386
 59.068     115.424
 59.078     126.833
 59.088     144.156
 59.098     168.729
 59.108     201.187
 59.118     240.927
 59.128     285.626
 59.138     331.269
 59.148     372.539
 59.158     403.791
 59.168     420.298
 59.178     419.419
 59.188     401.300
 59.198     368.825
 59.208     326.869
 59.218     281.098
 59.228     236.737
 59.238     197.654
 59.248     165.957
 59.259     142.143
 59.269     125.470
 59.279     114.560
 59.289     107.873
 59.299     104.026
 59.309     101.947
 59.319     100.891
 59.329     100.386
 59.339     100.158
 59.349     100.061
 59.359     100.022
 59.369     100.008
 59.379     100.000
 59.389     100.000
 59.399     100.000
 59.409     100.000
 59.419     100.000
 59.429     100.000
 59.439     100.000
 59.449     100.000
 59.459     100.000
 59.469     100.000
 59.479     100.000
 59.489     100.000
 59.499     100.000
 59.509     100.000
 59.519     100.000
 59.529     100.000
 59.539     100.000
 59.549     100.000
 59.559     100.000
 59.569     100.000
 59.579     100.000
 59.589     100.000
 59.599     100.000
 59.609     100.000
 59.619     100.000
 59.629     100.000
 59.639     100.000
 59.649     100.000
 59.659     100.000
 59.669     100.000
 59.679     100.000
 59.689     100.000
 59.699     100.000
 59.709     100.000
 59.719     100.000
 59.729     100.000
 59.739     100.000
 59.749     100.000
 59.759     100.000
 59.769     100.000
 59.779     100.000
 59.789     100.000
 59.799     100.000
 59.809     100.000
 59.820     100.000
 59.830     100.000
 59.840     100.000
 59.850     100.000
 59.860     100.000
 59.870     100.000
 59.880     100.000
 59.890     100.000
 59.900     100.000
 59.910     100.000
 59.920     100.000
 59.930     100.000
 59.940     100.000
 59.950     100.000
 59.960     100.000
 59.970     100.000
 59.980     100.000
 59.990     100.000
 60.000     100.000
 60.010     100.000
 60.020     100.000
 60.030     100.000
 60.040     100.000
 60.050     100.000
 60.060     100.000
 60.070     100.000
 60.080     100.000
 60.090     100.000
 60.100     100.000
 60.110     100.000
 60.120     100.000
 60.130     100.000
 60.140     100.000
 60.150     100.000
 60.160     100.000
 60.170     100.000
 60.180     100.000
 60.190     100.000
 60.200     100.000
 60.210     100.000
 60.220     100.000
 60.230     100.000
 60.240     100.000
 60.250     100.000
 60.260     100.000
 60.270     100.000
 60.280     100.000
 60.290     100.000
 60.300     100.000
 60.310     100.000
 60.320     100.000
 60.330     100.000
 60.340     100.000
 60.350     100.000
 60.360     100.000
 60.371     100.000
 60.381     100.000
 60.391     100.000
 60.401     100.000
 60.411     100.000
 60.421     100.000
 60.431     100.000
 60.441     100.000
 60.451     100.000
 60.461     100.000
 60.471     100.000
 60.481     100.000
 60.491     100.000
 60.501     100.000
 60.511     100.000
 60.521     100.000
 60.531     100.000
 60.541     100.000
 60.551     100.000
 60.561     100.000
 60.571     100.000
 60.581     100.000
 60.591     100.000
 60.601     100.000
 60.611     100.000
 60.621     100.000
 60.631     100.000
 60.641     100.000
 60.651     100.000
 60.661     100.000
 60.671     100.000
 60.681     100.000
 60.691     100.000
 60.701     100.000
 60.711     100.000
 60.721     100.000
 60.731     100.000
 60.741     100.000
 60.751     100.000
 60.761     100.000
 60.771     100.000
 60.781     100.000
 60.791     100.000
 60.801     100.000
 60.811     100.000
 60.821     100.000
 60.831     100.000
 60.841     100.000
 60.851     100.000
 60.861     100.000
 60.871     100.000
 60.881     100.000
 60.891     100.000
 60.901     100.000
 60.911     100.000
 60.921     100.000
 60.932     100.000
 60.942     100.000
 60.952     100.000
 60.962     100.000
 60.972     100.000
 60.982     100.000
 60.992     100.000
 61.002     100.000
 61.012     100.000
 61.022     100.000
 61.032     100.000
 61.042     100.000
 61.052     100.000
 61.062     100.000
 61.072     100.000
 61.082     100.000
 61.092     100.000
 61.102     100.000
 61.112     100.000
 61.122     100.000
 61.132     100.000
 61.142     100.000
 61.152     100.000
 61.162     100.000
 61.172     100.000
 61.182     100.000
 61.192     100.000
 61.202     100.000
 61.212     100.000
 61.222     100.000
 61.232     100.000
 61.242     100.000
 61.252     100.000
 61.262     100.000
 61.272     100.000
 61.282     100.000
 61.292     100.000
 61.302     100.000
 61.312     100.000
 61.322     100.000
 61.332     100.000
 61.342     100.000
 61.352     100.000
 61.362     100.000
 61.372     100.000
 61.382     100.000
 61.392     100.000
 61.402     100.000
 61.412     100.000
 61.422     100.000
 61.432     100.000
 61.442     100.000
 61.452     100.000
 61.462     100.000
 61.472     100.000
 61.483     100.000
 61.493     100.000
 61.503     100.000
 61.513     100.000
 61.523     100.000
 61.533     100.000
 61.543     100.000
 61.553     100.000
 61.563     100.000
 61.573     100.000
 61.583     100.000
 61.593     100.000
 61.603     100.000
 61.613     100.000
 61.623     100.000
 61.633     100.000
 61.643     100.000
 61.653     100.000
 61.663     100.000
 61.673     100.000
 61.683     100.000
 61.693     100.000
 61.703     100.000
 61.713     100.000
 61.723     100.000
 61.733     100.000
 61.743     100.000
 61.753     100.000
 61.763     100.000
 61.773     100.000
 61.783     100.000
 61.793     100.000
 61.803     100.000
 61.813     100.000
 61.823     100.000
 61.833     100.000
 61.843     100.000
 61.853     100.000
 61.863     100.000
 61.873     100.000
 61.883     100.000
 61.893     100.000
 61.903     100.000
 61.913     100.000
 61.923     100.000
 61.933     100.000
 61.943     100.000
 61.953     100.000
 61.963     100.000
 61.973     100.000
 61.983     100.000
 61.993     100.000
 62.003     100.000
 62.013     100.000
 62.023     100.000
 62.033     100.000
 62.044     100.000
 62.054     100.000
 62.064     100.000
 62.074     100.000
 62.084     100.000
 62.094     100.000
 62.104     100.000
 62.114     100.000
 62.124     100.000
 62.134     100.000
 62.144     100.000
 62.154     100.000
 62.164     100.000
 62.174     100.000
 62.184     100.000
 62.194     100.000
 62.204     100.000
 62.214     100.000
 62.224     100.000
 62.234     100.000
 62.244     100.000
 62.254     100.000
 62.264     100.000
 62.274     100.000
 62.284     100.000
 62.294     100.000
 62.304     100.000
 62.314     100.000
 62.324     100.000
 62.334     100.000
 62.344     100.000
 62.354     100.000
 62.364     100.000
 62.374     100.000
 62.384     100.000
 62.394     100.000
 62.404     100.000
 62.414     100.000
 62.424     100.000
 62.434     100.000
 62.444     100.000
 62.454     100.000
 62.464     100.000
 62.474     100.000
 62.484     100.000
 62.494     100.000
 62.504     100.000
 62.514     100.000
 62.524     100.000
 62.534     100.000
 62.544     100.000
 62.554     100.000
 62.564     100.000
 62.574     100.000
 62.584     100.000
 62.595     100.000
 62.605     100.000
 62.615     100.000
 62.625     100.000
 62.635     100.000
 62.645     100.000
 62.655     100.000
 62.665     100.000
 62.675     100.000
 62.685     100.000
 62.695     100.000
 62.705     100.000
 62.715     100.000
 62.725     100.000
 62.735     100.000
 62.745     100.000
 62.755     100.000
 62.765     100.000
 62.775     100.000
 62.785     100.000
 62.795     100.000
 62.805     100.000
 62.815     100.000
 62.825     100.000
 62.835     100.000
 62.845     100.000
 62.855     100.000
 62.865     100.000
 62.875     100.000
 62.885     100.000
 62.895     100.000
 62.905     100.000
 62.915     100.000
 62.925     100.000
 62.935     100.000
 62.945     100.000
 62.955     100.000
 62.965     100.000
 62.975     100.000
 62.985     100.000
 62.995     100.000
 63.005     100.000
 63.015     100.000
 63.025     100.000
 63.035     100.000
 63.045     100.000
 63.055     100.000
 63.065     100.000
 63.075     100.000
 63.085     100.000
 63.095     100.000
 63.105     100.000
 63.115     100.000
 63.125     100.000
 63.135     100.000
 63.145     100.000
 63.156     100.000
 63.166     100.000
 63.176     100.000
 63.186     100.000
 63.196     100.000
 63.206     100.000
 63.216     100.000
 63.226     100.000
 63.236     100.000
 63.246     100.000
 63.256     100.000
 63.266     100.000
 63.276     100.000
 63.286     100.000
 63.296     100.000
 63.306     100.000
 63.316     100.000
 63.326     100.000
 63.336     100.000
 63.346     100.000
 63.356     100.000
 63.366     100.000
 63.376     100.000
 63.386     100.000
 63.396     100.000
 63.406     100.000
 63.416     100.000
 63.426     100.000
 63.436     100.000
 63.446     100.000
 63.456     100.000
 63.466     100.000
 63.476     100.000
 63.486     100.000
 63.496     100.000
 63.506     100.000
 63.516     100.000
 63.526     100.000
 63.536     100.000
 63.546     100.000
 63.556     100.000
 63.566     100.000
 63.576     100.000
 63.586     100.000
 63.596     100.000
 63.606     100.000
 63.616     100.000
 63.626     100.000
 63.636     100.000
 63.646     100.000
 63.656     100.000
 63.666     100.000
 63.676     100.000
 63.686     100.000
 63.696     100.000
 63.706     100.000
 63.717     100.000
 63.727     100.000
 63.737     100.000
 63.747     100.000
 63.757     100.000
 63.767     100.000
 63.777     100.000
 63.787     100.000
 63.797     100.000
 63.807     100.000
 63.817     100.000
 63.827     100.000
 63.837     100.000
 63.847     100.000
 63.857     100.000
 63.867     100.000
 63.877     100.000
 63.887     100.000
 63.897     100.000
 63.907     100.000
 63.917     100.000
 63.927     100.000
 63.937     100.000
 63.947     100.000
 63.957     100.000
 63.967     100.000
 63.977     100.000
 63.987     100.000
 63.997     100.000
 64.007     100.000
 64.017     100.000
 64.027     100.000
 64.037     100.000
 64.047     100.000
 64.057     100.000
 64.067     100.000
 64.077     100.000
 64.087     100.000
 64.097     100.000
 64.107     100.000
 64.117     100.000
 64.127     100.000
 64.137     100.000
 64.147     100.000
 64.157     100.000
 64.167     100.000
 64.177     100.000
 64.187     100.000
 64.197     100.000
 64.207     100.000
 64.217     100.000
 64.227     100.000
 64.237     100.000
 64.247     100.000
 64.257     100.000
 64.268     100.000
 64.278     100.000
 64.288     100.000
 64.298     100.000
 64.308     100.000
 64.318     100.000
 64.328     100.000
 64.338     100.000
 64.348     100.000
 64.358     100.000
 64.368     100.000
 64.378     100.000
 64.388     100.000
 64.398     100.000
 64.408     100.000
 64.418     100.000
 64.428     100.000
 64.438     100.000
 64.448     100.000
 64.458     100.000
 64.468     100.000
 64.478     100.000
 64.488     100.000
 64.498     100.000
 64.508     100.000
 64.518     100.000
 64.528     100.000
 64.538     100.000
 64.548     100.000
 64.558     100.000
 64.568     100.000
 64.578     100.000
 64.588     100.000
 64.598     100.000
 64.608     100.000
 64.618     100.000
 64.628     100.000
 64.638     100.000
 64.648     100.000
 64.658     100.000
 64.668     100.000
 64.678     100.000
 64.688     100.000
 64.698     100.000
 64.708     100.000
 64.718     100.000
 64.728     100.000
 64.738     100.000
 64.748     100.000
 64.758     100.000
 64.768     100.000
 64.778     100.000
 64.788     100.000
 64.798     100.000
 64.808     100.000
 64.818     100.000
 64.829     100.000
 64.839     100.000
 64.849     100.000
 64.859     100.000
 64.869     100.000
 64.879     100.000
 64.889     100.000
 64.899     100.000
 64.909     100.000
 64.919     100.000
 64.929     100.000
 64.939     100.000
 64.949     100.000
 64.959     100.000
 64.969     100.000
 64.979     100.000
 64.989     100.000
 64.999     100.000
 65.009     100.000
 65.019     100.000
 65.029     100.000
 65.039     100.000
 65.049     100.000
 65.059     100.000
 65.069     100.000
 65.079     100.000
 65.089     100.000
 65.099     100.000
 65.109     100.000
 65.119     100.000
 65.129     100.000
 65.139     100.000
 65.149     100.000
 65.159     100.000
 65.169     100.000
 65.179     100.000
 65.189     100.000
 65.199     100.000
 65.209     100.000
 65.219     100.000
 65.229     100.000
 65.239     100.000
 65.249     100.000
 65.259     100.000
 65.269     100.000
 65.279     100.000
 65.289     100.000
 65.299     100.000
 65.309     100.000
 65.319     100.000
 65.329     100.000
 65.339     100.000
 65.349     100.000
 65.359     100.000
 65.369     100.000
 65.380     100.000
 65.390     100.000
 65.400     100.000
 65.410     100.000
 65.420     100.000
 65.430     100.000
 65.440     100.000
 65.450     100.000
 65.460     100.000
 65.470     100.000
 65.480     100.000
 65.490     100.000
 65.500     100.000
 65.510     100.000
 65.520     100.000
 65.530     100.000
 65.540     100.000
 65.550     100.000
 65.560     100.000
 65.570     100.000
 65.580     100.000
 65.590     100.000
 65.600     100.000
 65.610     100.000
 65.620     100.000
 65.630     100.000
 65.640     100.000
 65.650     100.000
 65.660     100.000
 65.670     100.000
 65.680     100.000
 65.690     100.000
 65.700     100.000
 65.710     100.000
 65.720     100.000
 65.730     100.000
 65.740     100.000
 65.750     100.000
 65.760     100.000
 65.770     100.000
 65.780     100.000
 65.790     100.000
 65.800     100.000
 65.810     100.000
 65.820     100.000
 65.830     100.000
 65.840     100.000
 65.850     100.000
 65.860     100.000
 65.870     100.000
 65.880     100.000
 65.890     100.000
 65.900     100.000
 65.910     100.000
 65.920     100.000
 65.930     100.000
 65.941     100.000
 65.951     100.000
 65.961     100.000
 65.971     100.000
 65.981     100.000
 65.991     100.000
 66.001     100.000
 66.011     100.000
 66.021     100.000
 66.031     100.000
 66.041     100.000
 66.051     100.000
 66.061     100.000
 66.071     100.000
 66.081     100.000
 66.091     100.000
 66.101     100.000
 66.111     100.000
 66.121     100.000
 66.131     100.000
 66.141     100.000
 66.151     100.000
 66.161     100.000
 66.171     100.000
 66.181     100.000
 66.191     100.000
 66.201     100.000
 66.211     100.000
 66.221     100.000
 66.231     100.000
 66.241     100.000
 66.251     100.000
 66.261     100.000
 66.271     100.000
 66.281     100.000
 66.291     100.000
 66.301     100.000
 66.311     100.000
 66.321     100.000
 66.331     100.000
 66.341     100.000
 66.351     100.000
 66.361     100.000
 66.371     100.000
 66.381     100.000
 66.391     100.000
 66.401     100.000
 66.411     100.000
 66.421     100.000
 66.431     100.000
 66.441     100.000
 66.451     100.000
 66.461     100.000
 66.471     100.000
 66.481     100.000
 66.492     100.000
 66.502     100.000
 66.512     100.000
 66.522     100.000
 66.532     100.000
 66.542     100.000
 66.552     100.000
 66.562     100.000
 66.572     100.000
 66.582     100.000
 66.592     100.000
 66.602     100.000
 66.612     100.000
 66.622     100.000
 66.632     100.000
 66.642     100.000
 66.652     100.000
 66.662     100.000
 66.672     100.000
 66.682     100.000
 66.692     100.000
 66.702     100.000
 66.712     100.000
 66.722     100.000
 66.732     100.000
 66.742     100.000
 66.752     100.000
 66.762     100.000
 66.772     100.000
 66.782     100.000
 66.792     100.000
 66.802     100.000
 66.812     100.000
 66.822     100.000
 66.832     100.000
 66.842     100.000
 66.852     100.000
 66.862     100.000
 66.872     100.000
 66.882     100.000
 66.892     100.000
 66.902     100.000
 66.912     100.000
 66.922     100.000
 66.932     100.000
 66.942     100.000
 66.952     100.000
 66.962     100.000
 66.972     100.000
 66.982     100.000
 66.992     100.000
 67.002     100.000
 67.012     100.000
 67.022     100.000
 67.032     100.000
 67.042     100.000
 67.053     100.000
 67.063     100.000
 67.073     100.000
 67.083     100.000
 67.093     100.000
 67.103     100.000
 67.113     100.000
 67.123     100.000
 67.133     100.000
 67.143     100.000
 67.153     100.000
 67.163     100.000
 67.173     100.000
 67.183     100.000
 67.193     100.000
 67.203     100.000
 67.213     100.000
 67.223     100.000
 67.233     100.000
 67.243     100.000
 67.253     100.000
 67.263     100.000
 67.273     100.000
 67.283     100.000
 67.293     100.000
 67.303     100.000
 67.313     100.000
 67.323     100.000
 67.333     100.000
 67.343     100.000
 67.353     100.000
 67.363     100.000
 67.373     100.000
 67.383     100.000
 67.393     100.000
 67.403     100.000
 67.413     100.000
 67.423     100.000
 67.433     100.000
 67.443     100.000
 67.453     100.000
 67.463     100.000
 67.473     100.000
 67.483     100.000
 67.493     100.000
 67.503     100.000
 67.513     100.000
 67.523     100.000
 67.533     100.000
 67.543     100.000
 67.553     100.000
 67.563     100.000
 67.573     100.000
 67.583     100.000
 67.593     100.000
 67.604     100.000
 67.614     100.000
 67.624     100.000
 67.634     100.000
 67.644     100.000
 67.654     100.000
 67.664     100.000
 67.674     100.018
 67.684     100.050
 67.694     100.133
 67.704     100.337
 67.714     100.804
 67.724     101.817
 67.734     103.882
 67.744     107.845
 67.754     114.998
 67.764     127.120
 67.774     146.386
 67.784     175.044
 67.794     214.836
 67.804     266.259
 67.814     327.613
 67.824     394.743
 67.834     461.012
 67.844     518.249
 67.854     558.333
 67.864     575.074
 67.874     565.774
 67.884     531.939
 67.894     478.882
 67.904     414.354
 67.914     346.699
 67.924     283.126
 67.934     228.541
 67.944     185.364
 67.954     153.621
 67.964     131.859
 67.974     117.905
 67.984     109.518
 67.994     104.786
 68.004     102.276
 68.014     101.024
 68.024     100.436
 68.034     100.175
 68.044     100.067
 68.054     100.024
 68.064     100.008
 68.074     100.000
 68.084     100.000
 68.094     100.000
 68.104     100.000
 68.114     100.000
 68.124     100.000
 68.134     100.000
 68.144     100.000
 68.154     100.000
 68.165     100.000
 68.175     100.000
 68.185     100.000
 68.195     100.040
 68.205     100.113
 68.215     100.307
 68.225     100.786
 68.235     101.903
 68.245     104.361
 68.255     109.452
 68.265     119.377
 68.275     137.573
 68.285     168.913
 68.295     219.553
 68.305     296.251
 68.315     404.594
 68.325     547.161
 68.335     720.928
 68.345     915.553
 68.355    1113.204
 68.365    1290.626
 68.375    1423.390
 68.385    1491.341
 68.395    1483.609
 68.405    1401.448
 68.415    1257.908
 68.425    1074.440
 68.435     875.506
 68.445     683.868
 68.455     515.794
 68.465     380.076
 68.475     278.446
 68.485     207.541
 68.495     161.302
 68.505     133.052
 68.515     116.857
 68.525     108.131
 68.535     103.710
 68.545     101.601
 68.555     100.654
 68.565     100.252
 68.575     100.092
 68.585     100.032
 68.595     100.000
 68.605     100.000
 68.615     100.000
 68.625     100.000
 68.635     100.000
 68.645     100.000
 68.655     100.000
 68.665     100.000
 68.675     100.000
 68.685     100.000
 68.695     100.000
 68.705     100.000
 68.715     100.000
 68.726     100.000
 68.736     100.000
 68.746     100.000
 68.756     100.000
 68.766     100.000
 68.776     100.000
 68.786     100.000
 68.796     100.000
 68.806     100.000
 68.816     100.000
 68.826     100.000
 68.836     100.000
 68.846     100.000
 68.856     100.000
 68.866     100.000
 68.876     100.000
 68.886     100.000
 68.896     100.000
 68.906     100.000
 68.916     100.000
 68.926     100.000
 68.936     100.000
 68.946     100.000
 68.956     100.000
 68.966     100.000
 68.976     100.000
 68.986     100.000
 68.996     100.000
 69.006     100.000
 69.016     100.000
 69.026     100.000
 69.036     100.000
 69.046     100.000
 69.056     100.000
 69.066     100.000
 69.076     100.000
 69.086     100.000
 69.096     100.000
 69.106     100.000
 69.116     100.000
 69.126     100.000
 69.136     100.000
 69.146     100.000
 69.156     100.000
 69.166     100.000
 69.176     100.000
 69.186     100.000
 69.196     100.000
 69.206     100.000
 69.216     100.000
 69.226     100.000
 69.236     100.000
 69.246     100.000
 69.256     100.000
 69.266     100.000
 69.277     100.000
 69.287     100.000
 69.297     100.000
 69.307     100.000
 69.317     100.000
 69.327     100.000
 69.337     100.000
 69.347     100.000
 69.357     100.000
 69.367     100.000
 69.377     100.000
 69.387     100.000
 69.397     100.000
 69.407     100.000
 69.417     100.000
 69.427     100.000
 69.437     100.000
 69.447     100.000
 69.457     100.000
 69.467     100.000
 69.477     100.000
 69.487     100.000
 69.497     100.000
 69.507     100.000
 69.517     100.000
 69.527     100.000
 69.537     100.000
 69.547     100.000
 69.557     100.000
 69.567     100.000
 69.577     100.000
 69.587     100.000
 69.597     100.000
 69.607     100.000
 69.617     100.000
 69.627     100.000
 69.637     100.000
 69.647     100.000
 69.657     100.000
 69.667     100.000
 69.677     100.000
 69.687     100.000
 69.697     100.000
 69.707     100.000
 69.717     100.000
 69.727     100.000
 69.737     100.000
 69.747     100.000
 69.757     100.000
 69.767     100.000
 69.777     100.000
 69.787     100.000
 69.797     100.000
 69.807     100.000
 69.817     100.000
 69.827     100.000
 69.838     100.000
 69.848     100.000
 69.858     100.000
 69.868     100.000
 69.878     100.000
 69.888     100.000
 69.898     100.000
 69.908     100.000
 69.918     100.000
 69.928     100.000
 69.938     100.000
 69.948     100.000
 69.958     100.000
 69.968     100.000
 69.978     100.000
 69.988     100.000
 69.998     100.000
 70.008     100.000
 70.018     100.000
 70.028     100.000
 70.038     100.000
 70.048     100.000
 70.058     100.000
 70.068     100.000
 70.078     100.000
 70.088     100.000
 70.098     100.000
 70.108     100.000
 70.118     100.000
 70.128     100.000
 70.138     100.000
 70.148     100.000
 70.158     100.000
 70.168     100.000
 70.178     100.000
 70.188     100.000
 70.198     100.000
 70.208     100.000
 70.218     100.000
 70.228     100.000
 70.238     100.000
 70.248     100.000
 70.258     100.000
 70.268     100.000
 70.278     100.000
 70.288     100.000
 70.298     100.000
 70.308     100.000
 70.318     100.000
 70.328     100.000
 70.338     100.000
 70.348     100.000
 70.358     100.000
 70.368     100.000
 70.378     100.000
 70.389     100.000
 70.399     100.000
 70.409     100.000
 70.419     100.000
 70.429     100.000
 70.439     100.000
 70.449     100.000
 70.459     100.000
 70.469     100.000
 70.479     100.000
 70.489     100.000
 70.499     100.000
 70.509     100.000
 70.519     100.000
 70.529     100.000
 70.539     100.000
 70.549     100.000
 70.559     100.000
 70.569     100.000
 70.579     100.000
 70.589     100.000
 70.599     100.000
 70.609     100.000
 70.619     100.000
 70.629     100.000
 70.639     100.000
 70.649     100.000
 70.659     100.000
 70.669     100.000
 70.679     100.000
 70.689     100.000
 70.699     100.000
 70.709     100.000
 70.719     100.000
 70.729     100.000
 70.739     100.000
 70.749     100.000
 70.759     100.000
 70.769     100.000
 70.779     100.000
 70.789     100.000
 70.799     100.000
 70.809     100.000
 70.819     100.000
 70.829     100.000
 70.839     100.000
 70.849     100.000
 70.859     100.000
 70.869     100.000
 70.879     100.000
 70.889     100.000
 70.899     100.000
 70.909     100.000
 70.919     100.000
 70.929     100.000
 70.939     100.000
 70.950     100.000
 70.960     100.000
 70.970     100.000
 70.980     100.000
 70.990     100.000
 71.000     100.000
 71.010     100.000
 71.020     100.000
 71.030     100.000
 71.040     100.000
 71.050     100.000
 71.060     100.000
 71.070     100.000
 71.080     100.000
 71.090     100.000
 71.100     100.000
 71.110     100.000
 71.120     100.000
 71.130     100.000
 71.140     100.000
 71.150     100.000
 71.160     100.000
 71.170     100.000
 71.180     100.000
 71.190     100.000
 71.200     100.000
 71.210     100.000
 71.220     100.000
 71.230     100.000
 71.240     100.000
 71.250     100.000
 71.260     100.000
 71.270     100.000
 71.280     100.000
 71.290     100.000
 71.300     100.000
 71.310     100.000
 71.320     100.000
 71.330     100.000
 71.340     100.000
 71.350     100.000
 71.360     100.000
 71.370     100.000
 71.380     100.000
 71.390     100.000
 71.400     100.000
 71.410     100.000
 71.420     100.000
 71.430     100.000
 71.440     100.000
 71.450     100.000
 71.460     100.000
 71.470     100.000
 71.480     100.000
 71.490     100.000
 71.501     100.000
 71.511     100.000
 71.521     100.000
 71.531     100.000
 71.541     100.000
 71.551     100.000
 71.561     100.000
 71.571     100.000
 71.581     100.000
 71.591     100.000
 71.601     100.000
 71.611     100.000
 71.621     100.000
 71.631     100.000
 71.641     100.000
 71.651     100.000
 71.661     100.000
 71.671     100.000
 71.681     100.000
 71.691     100.000
 71.701     100.000
 71.711     100.000
 71.721     100.000
 71.731     100.000
 71.741     100.000
 71.751     100.000
 71.761     100.000
 71.771     100.000
 71.781     100.000
 71.791     100.000
 71.801     100.000
 71.811     100.000
 71.821     100.000
 71.831     100.000
 71.841     100.000
 71.851     100.000
 71.861     100.000
 71.871     100.000
 71.881     100.000
 71.891     100.000
 71.901     100.000
 71.911     100.000
 71.921     100.000
 71.931     100.000
 71.941     100.000
 71.951     100.000
 71.961     100.000
 71.971     100.000
 71.981     100.000
 71.991     100.000
 72.001     100.000
 72.011     100.000
 72.021     100.000
 72.031     100.000
 72.041     100.000
 72.051     100.000
 72.062     100.000
 72.072     100.000
 72.082     100.000
 72.092     100.000
 72.102     100.000
 72.112     100.000
 72.122     100.000
 72.132     100.000
 72.142     100.000
 72.152     100.000
 72.162     100.000
 72.172     100.000
 72.182     100.000
 72.192     100.000
 72.202     100.000
 72.212     100.000
 72.222     100.000
 72.232     100.000
 72.242     100.000
 72.252     100.000
 72.262     100.000
 72.272     100.000
 72.282     100.000
 72.292     100.000
 72.302     100.000
 72.312     100.000
 72.322     100.000
 72.332     100.000
 72.342     100.000
 72.352     100.000
 72.362     100.000
 72.372     100.000
 72.382     100.000
 72.392     100.000
 72.402     100.053
 72.412     100.153
 72.422     100.420
 72.432     101.091
 72.442     102.680
 72.452     106.227
 72.462     113.684
 72.472     128.443
 72.482     155.948
 72.492     204.038
 72.502     282.993
 72.512     404.445
 72.522     579.093
 72.532     813.121
 72.542    1104.016
 72.552    1437.062
 72.562    1784.211
 72.572    2106.666
 72.582    2361.452
 72.592    2510.646
 72.602    2530.563
 72.613    2417.939
 72.623    2190.889
 72.633    1883.995
 72.643    1539.760
 72.653    1199.057
 72.663     893.568
 72.673     641.978
 72.683     450.117
 72.693     313.933
 72.703     223.645
 72.713     167.594
 72.723     134.952
 72.733     117.086
 72.743     107.904
 72.753     103.459
 72.763     101.431
 72.773     100.560
 72.783     100.208
 72.793     100.073
 72.803     100.000
 72.813     100.000
 72.823     100.000
 72.833     100.000
 72.843     100.000
 72.853     100.000
 72.863     100.000
 72.873     100.000
 72.883     100.000
 72.893     100.000
 72.903     100.000
 72.913     100.000
 72.923     100.000
 72.933     100.000
 72.943     100.000
 72.953     100.000
 72.963     100.000
 72.973     100.000
 72.983     100.000
 72.993     100.000
 73.003     100.000
 73.013     100.000
 73.023     100.000
 73.033     100.000
 73.043     100.000
 73.053     100.000
 73.063     100.000
 73.073     100.000
 73.083     100.000
 73.093     100.000
 73.103     100.000
 73.113     100.000
 73.123     100.000
 73.133     100.000
 73.143     100.000
 73.153     100.000
 73.163     100.000
 73.174     100.000
 73.184     100.000
 73.194     100.000
 73.204     100.000
 73.214     100.000
 73.224     100.000
 73.234     100.000
 73.244     100.000
 73.254     100.000
 73.264     100.000
 73.274     100.000
 73.284     100.000
 73.294     100.000
 73.304     100.000
 73.314     100.000
 73.324     100.000
 73.334     100.000
 73.344     100.000
 73.354     100.000
 73.364     100.000
 73.374     100.000
 73.384     100.000
 73.394     100.000
 73.404     100.000
 73.414     100.000
 73.424     100.000
 73.434     100.000
 73.444     100.000
 73.454     100.000
 73.464     100.000
 73.474     100.000
 73.484     100.000
 73.494     100.000
 73.504     100.000
 73.514     100.000
 73.524     100.000
 73.534     100.000
 73.544     100.000
 73.554     100.000
 73.564     100.000
 73.574     100.000
 73.584     100.000
 73.594     100.000
 73.604     100.000
 73.614     100.000
 73.624     100.000
 73.634     100.000
 73.644     100.000
 73.654     100.000
 73.664     100.000
 73.674     100.000
 73.684     100.000
 73.694     100.000
 73.704     100.000
 73.714     100.000
 73.724     100.000
 73.735     100.000
 73.745     100.000
 73.755     100.000
 73.765     100.000
 73.775     100.000
 73.785     100.000
 73.795     100.000
 73.805     100.000
 73.815     100.000
 73.825     100.000
 73.835     100.000
 73.845     100.000
 73.855     100.000
 73.865     100.000
 73.875     100.000
 73.885     100.000
 73.895     100.000
 73.905     100.000
 73.915     100.000
 73.925     100.000
 73.935     100.000
 73.945     100.000
 73.955     100.000
 73.965     100.000
 73.975     100.000
 73.985     100.000
 73.995     100.000
 74.005     100.000
 74.015     100.000
 74.025     100.000
 74.035     100.000
 74.045     100.000
 74.055     100.000
 74.065     100.000
 74.075     100.000
 74.085     100.000
 74.095     100.000
 74.105     100.000
 74.115     100.000
 74.125     100.000
 74.135     100.000
 74.145     100.000
 74.155     100.000
 74.165     100.000
 74.175     100.000
 74.185     100.000
 74.195     100.000
 74.205     100.000
 74.215     100.000
 74.225     100.000
 74.235     100.000
 74.245     100.000
 74.255     100.000
 74.265     100.000
 74.275     100.000
 74.286     100.000
 74.296     100.000
 74.306     100.000
 74.316     100.000
 74.326     100.000
 74.336     100.000
 74.346     100.000
 74.356     100.000
 74.366     100.000
 74.376     100.000
 74.386     100.000
 74.396     100.000
 74.406     100.000
 74.416     100.000
 74.426     100.000
 74.436     100.000
 74.446     100.000
 74.456     100.000
 74.466     100.000
 74.476     100.000
 74.486     100.000
 74.496     100.000
 74.506     100.000
 74.516     100.000
 74.526     100.000
 74.536     100.000
 74.546     100.000
 74.556     100.000
 74.566     100.000
 74.576     100.000
 74.586     100.000
 74.596     100.000
 74.606     100.000
 74.616     100.000
 74.626     100.000
 74.636     100.000
 74.646     100.000
 74.656     100.000
 74.666     100.000
 74.676     100.000
 74.686     100.000
 74.696     100.000
 74.706     100.000
 74.716     100.000
 74.726     100.000
 74.736     100.000
 74.746     100.000
 74.756     100.000
 74.766     100.000
 74.776     100.000
 74.786     100.000
 74.796     100.000
 74.806     100.000
 74.816     100.000
 74.826     100.000
 74.836     100.000
 74.847     100.000
 74.857     100.000
 74.867     100.000
 74.877     100.000
 74.887     100.000
 74.897     100.000
 74.907     100.000
 74.917     100.000
 74.927     100.000
 74.937     100.000
 74.947     100.000
 74.957     100.000
 74.967     100.000
 74.977     100.000
 74.987     100.000
 74.997     100.000
 75.007     100.000
 75.017     100.000
 75.027     100.000
 75.037     100.000
 75.047     100.000
 75.057     100.000
 75.067     100.000
 75.077     100.000
 75.087     100.000
 75.097     100.000
 75.107     100.000
 75.117     100.000
 75.127     100.000
 75.137     100.000
 75.147     100.000
 75.157     100.000
 75.167     100.000
 75.177     100.000
 75.187     100.000
 75.197     100.000
 75.207     100.000
 75.217     100.000
 75.227     100.000
 75.237     100.000
 75.247     100.000
 75.257     100.000
 75.267     100.000
 75.277     100.000
 75.287     100.000
 75.297     100.000
 75.307     100.000
 75.317     100.000
 75.327     100.000
 75.337     100.000
 75.347     100.000
 75.357     100.000
 75.367     100.000
 75.377     100.000
 75.387     100.000
 75.398     100.000
 75.408     100.000
 75.418     100.000
 75.428     100.000
 75.438     100.000
 75.448     100.000
 75.458     100.000
 75.468     100.000
 75.478     100.000
 75.488     100.000
 75.498     100.000
 75.508     100.000
 75.518     100.000
 75.528     100.000
 75.538     100.000
 75.548     100.000
 75.558     100.000
 75.568     100.000
 75.578     100.000
 75.588     100.000
 75.598     100.000
 75.608     100.000
 75.618     100.000
 75.628     100.000
 75.638     100.000
 75.648     100.000
 75.658     100.000
 75.668     100.000
 75.678     100.000
 75.688     100.000
 75.698     100.000
 75.708     100.000
 75.718     100.000
 75.728     100.000
 75.738     100.000
 75.748     100.000
 75.758     100.000
 75.768     100.000
 75.778     100.000
 75.788     100.000
 75.798     100.000
 75.808     100.000
 75.818     100.000
 75.828     100.000
 75.838     100.000
 75.848     100.000
 75.858     100.000
 75.868     100.000
 75.878     100.000
 75.888     100.000
 75.898     100.000
 75.908     100.000
 75.918     100.000
 75.928     100.000
 75.938     100.000
 75.948     100.000
 75.959     100.000
 75.969     100.000
 75.979     100.000
 75.989     100.000
 75.999     100.000
 76.009     100.000
 76.019     100.000
 76.029     100.000
 76.039     100.000
 76.049     100.000
 76.059     100.000
 76.069     100.000
 76.079     100.000
 76.089     100.000
 76.099     100.000
 76.109     100.000
 76.119     100.000
 76.129     100.000
 76.139     100.000
 76.149     100.000
 76.159     100.000
 76.169     100.000
 76.179     100.000
 76.189     100.000
 76.199     100.000
 76.209     100.000
 76.219     100.000
 76.229     100.000
 76.239     100.000
 76.249     100.000
 76.259     100.000
 76.269     100.000
 76.279     100.000
 76.289     100.000
 76.299     100.000
 76.309     100.000
 76.319     100.000
 76.329     100.000
 76.339     100.000
 76.349     100.000
 76.359     100.000
 76.369     100.000
 76.379     100.000
 76.389     100.000
 76.399     100.000
 76.409     100.000
 76.419     100.000
 76.429     100.000
 76.439     100.000
 76.449     100.000
 76.459     100.000
 76.469     100.000
 76.479     100.000
 76.489     100.000
 76.499     100.000
 76.509     100.000
 76.520     100.000
 76.530     100.000
 76.540     100.000
 76.550     100.000
 76.560     100.000
 76.570     100.000
 76.580     100.000
 76.590     100.000
 76.600     100.000
 76.610     100.000
 76.620     100.000
 76.630     100.000
 76.640     100.000
 76.650     100.000
 76.660     100.000
 76.670     100.000
 76.680     100.000
 76.690     100.000
 76.700     100.000
 76.710     100.000
 76.720     100.000
 76.730     100.000
 76.740     100.000
 76.750     100.000
 76.760     100.000
 76.770     100.000
 76.780     100.000
 76.790     100.000
 76.800     100.000
 76.810     100.000
 76.820     100.000
 76.830     100.000
 76.840     100.000
 76.850     100.000
 76.860     100.000
 76.870     100.000
 76.880     100.000
 76.890     100.000
 76.900     100.000
 76.910     100.000
 76.920     100.000
 76.930     100.000
 76.940     100.000
 76.950     100.000
 76.960     100.000
 76.970     100.000
 76.980     100.000
 76.990     100.000
 77.000     100.000
 77.010     100.000
 77.020     100.000
 77.030     100.000
 77.040     100.000
 77.050     100.000
 77.060     100.000
 77.071     100.000
 77.081     100.000
 77.091     100.000
 77.101     100.000
 77.111     100.000
 77.121     100.000
 77.131     100.000
 77.141     100.000
 77.151     100.000
 77.161     100.000
 77.171     100.000
 77.181     100.000
 77.191     100.000
 77.201     100.000
 77.211     100.000
 77.221     100.000
 77.231     100.000
 77.241     100.000
 77.251     100.000
 77.261     100.000
 77.271     100.000
 77.281     100.000
 77.291     100.000
 77.301     100.000
 77.311     100.000
 77.321     100.000
 77.331     100.000
 77.341     100.000
 77.351     100.000
 77.361     100.000
 77.371     100.000
 77.381     100.000
 77.391     100.000
 77.401     100.000
 77.411     100.000
 77.421     100.000
 77.431     100.000
 77.441     100.000
 77.451     100.000
 77.461     100.000
 77.471     100.000
 77.481     100.000
 77.491     100.000
 77.501     100.000
 77.511     100.000
 77.521     100.000
 77.531     100.000
 77.541     100.000
 77.551     100.000
 77.561     100.000
 77.571     100.000
 77.581     100.000
 77.591     100.000
 77.601     100.000
 77.611     100.000
 77.621     100.000
 77.632     100.000
 77.642     100.000
 77.652     100.000
 77.662     100.000
 77.672     100.000
 77.682     100.000
 77.692     100.000
 77.702     100.000
 77.712     100.000
 77.722     100.000
 77.732     100.000
 77.742     100.000
 77.752     100.000
 77.762     100.000
 77.772     100.000
 77.782     100.000
 77.792     100.000
 77.802     100.000
 77.812     100.000
 77.822     100.000
 77.832     100.000
 77.842     100.000
 77.852     100.000
 77.862     100.000
 77.872     100.000
 77.882     100.000
 77.892     100.000
 77.902     100.000
 77.912     100.000
 77.922     100.000
 77.932     100.000
 77.942     100.000
 77.952     100.000
 77.962     100.000
 77.972     100.000
 77.982     100.000
 77.992     100.000
 78.002     100.000
 78.012     100.000
 78.022     100.000
 78.032     100.000
 78.042     100.000
 78.052     100.000
 78.062     100.000
 78.072     100.000
 78.082     100.000
 78.092     100.000
 78.102     100.000
 78.112     100.000
 78.122     100.000
 78.132     100.000
 78.142     100.000
 78.152     100.000
 78.162     100.000
 78.172     100.000
 78.183     100.000
 78.193     100.000
 78.203     100.000
 78.213     100.000
 78.223     100.000
 78.233     100.000
 78.243     100.000
 78.253     100.000
 78.263     100.000
 78.273     100.000
 78.283     100.000
 78.293     100.000
 78.303     100.000
 78.313     100.000
 78.323     100.000
 78.333     100.000
 78.343     100.000
 78.353     100.000
 78.363     100.000
 78.373     100.000
 78.383     100.000
 78.393     100.000
 78.403     100.000
 78.413     100.000
 78.423     100.000
 78.433     100.000
 78.443     100.000
 78.453     100.000
 78.463     100.000
 78.473     100.000
 78.483     100.000
 78.493     100.000
 78.503     100.000
 78.513     100.000
 78.523     100.000
 78.533     100.000
 78.543     100.000
 78.553     100.000
 78.563     100.000
 78.573     100.000
 78.583     100.000
 78.593     100.000
 78.603     100.000
 78.613     100.000
 78.623     100.000
 78.633     100.000
 78.643     100.000
 78.653     100.000
 78.663     100.000
 78.673     100.000
 78.683     100.000
 78.693     100.000
 78.703     100.000
 78.713     100.000
 78.723     100.000
 78.733     100.000
 78.744     100.000
 78.754     100.000
 78.764     100.000
 78.774     100.000
 78.784     100.000
 78.794     100.000
 78.804     100.000
 78.814     100.000
 78.824     100.000
 78.834     100.000
 78.844     100.000
 78.854     100.000
 78.864     100.000
 78.874     100.000
 78.884     100.000
 78.894     100.000
 78.904     100.000
 78.914     100.000
 78.924     100.000
 78.934     100.000
 78.944     100.000
 78.954     100.000
 78.964     100.000
 78.974     100.000
 78.984     100.000
 78.994     100.000
 79.004     100.000
 79.014     100.000
 79.024     100.000
 79.034     100.000
 79.044     100.000
 79.054     100.000
 79.064     100.000
 79.074     100.000
 79.084     100.000
 79.094     100.000
 79.104     100.000
 79.114     100.000
 79.124     100.000
 79.134     100.000
 79.144     100.000
 79.154     100.000
 79.164     100.000
 79.174     100.000
 79.184     100.000
 79.194     100.000
 79.204     100.000
 79.214     100.000
 79.224     100.000
 79.234     100.000
 79.244     100.000
 79.254     100.000
 79.264     100.000
 79.274     100.000
 79.284     100.000
 79.295     100.000
 79.305     100.000
 79.315     100.000
 79.325     100.000
 79.335     100.000
 79.345     100.000
 79.355     100.000
 79.365     100.000
 79.375     100.000
 79.385     100.000
 79.395     100.000
 79.405     100.000
 79.415     100.000
 79.425     100.000
 79.435     100.000
 79.445     100.000
 79.455     100.000
 79.465     100.000
 79.475     100.000
 79.485     100.000
 79.495     100.000
 79.505     100.000
 79.515     100.000
 79.525     100.000
 79.535     100.000
 79.545     100.000
 79.555     100.000
 79.565     100.000
 79.575     100.000
 79.585     100.000
 79.595     100.000
 79.605     100.000
 79.615     100.000
 79.625     100.000
 79.635     100.000
 79.645     100.000
 79.655     100.000
 79.665     100.000
 79.675     100.000
 79.685     100.000
 79.695     100.000
 79.705     100.000
 79.715     100.000
 79.725     100.000
 79.735     100.000
 79.745     100.000
 79.755     100.000
 79.765     100.000
 79.775     100.000
 79.785     100.000
 79.795     100.000
 79.805     100.000
 79.815     100.000
 79.825     100.000
 79.835     100.000
 79.845     100.000
 79.856     100.000
 79.866     100.000
 79.876     100.000
 79.886     100.000
 79.896     100.000
 79.906     100.000
 79.916     100.000
 79.926     100.000
 79.936     100.000
 79.946     100.000
 79.956     100.000
 79.966     100.000
 79.976     100.000
 79.986     100.000
 79.996     100.000
 80.006     100.000
 80.016     100.000
 80.026     100.000
 80.036     100.000
 80.046     100.000
 80.056     100.000
 80.066     100.000
 80.076     100.000
 80.086     100.000
 80.096     100.000
 80.106     100.000
 80.116     100.000
 80.126     100.000
 80.136     100.000
 80.146     100.000
 80.156     100.000
 80.166     100.000
 80.176     100.000
 80.186     100.000
 80.196     100.000
 80.206     100.000
 80.216     100.000
 80.226     100.000
 80.236     100.004
 80.246     100.011
 80.256     100.031
 80.266     100.079
 80.276     100.194
 80.286     100.448
 80.296     100.979
 80.306     102.024
 80.316     103.958
 80.326     107.317
 80.336     112.796
 80.346     121.166
 80.356     133.115
 80.366     149.005
 80.376     168.596
 80.386     190.821
 80.396     213.739
 80.407     234.731
 80.417     250.958
 80.427     259.986
 80.437     260.373
 80.447     252.057
 80.457     236.368
 80.467     215.679
 80.477     192.817
 80.487     170.443
 80.497     150.568
 80.507     134.336
 80.517     122.053
 80.527     113.397
 80.537     107.698
 80.547     104.184
 80.557     102.151
 80.567     101.045
 80.577     100.481
 80.587     100.209
 80.597     100.086
 80.607     100.034
 80.617     100.012
 80.627     100.004
 80.637     100.000
 80.647     100.000
 80.657     100.000
 80.667     100.000
 80.677     100.000
 80.687     100.000
 80.697     100.000
 80.707     100.000
 80.717     100.000
 80.727     100.002
 80.737     100.005
 80.747     100.013
 80.757     100.034
 80.767     100.084
 80.777     100.197
 80.787     100.433
 80.797     100.902
 80.807     101.777
 80.817     103.313
 80.827     105.840
 80.837     109.736
 80.847     115.354
 80.857     122.903
 80.867     132.314
 80.877     143.124
 80.887     154.436
 80.897     164.995
 80.907     173.403
 80.917     178.412
 80.927     179.229
 80.937     175.721
 80.947     168.445
 80.957     158.523
 80.968     147.330
 80.978     136.207
 80.988     126.198
 80.998     117.931
 81.008     111.608
 81.018     107.108
 81.028     104.117
 81.038     102.255
 81.048     101.169
 81.058     100.573
 81.068     100.265
 81.078     100.116
 81.088     100.048
 81.098     100.019
 81.108     100.007
 81.118     100.002
 81.128     100.000
 81.138     100.000
 81.148     100.000
 81.158     100.000
 81.168     100.000
 81.178     100.000
 81.188     100.000
 81.198     100.000
 81.208     100.000
 81.218     100.000
 81.228     100.000
 81.238     100.000
 81.248     100.000
 81.258     100.000
 81.268     100.000
 81.278     100.000
 81.288     100.000
 81.298     100.000
 81.308     100.000
 81.318     100.000
 81.328     100.000
 81.338     100.000
 81.348     100.000
 81.358     100.000
 81.368     100.000
 81.378     100.000
 81.388     100.000
 81.398     100.000
 81.408     100.000
 81.418     100.000
 81.428     100.000
 81.438     100.000
 81.448     100.000
 81.458     100.000
 81.468     100.000
 81.478     100.000
 81.488     100.000
 81.498     100.000
 81.508     100.000
 81.519     100.000
 81.529     100.000
 81.539     100.000
 81.549     100.000
 81.559     100.000
 81.569     100.000
 81.579     100.000
 81.589     100.000
 81.599     100.000
 81.609     100.000
 81.619     100.000
 81.629     100.000
 81.639     100.000
 81.649     100.000
 81.659     100.000
 81.669     100.000
 81.679     100.000
 81.689     100.000
 81.699     100.000
 81.709     100.000
 81.719     100.000
 81.729     100.000
 81.739     100.000
 81.749     100.000
 81.759     100.000
 81.769     100.000
 81.779     100.000
 81.789     100.000
 81.799     100.000
 81.809     100.000
 81.819     100.000
 81.829     100.000
 81.839     100.000
 81.849     100.000
 81.859     100.000
 81.869     100.000
 81.879     100.000
 81.889     100.000
 81.899     100.000
 81.909     100.000
 81.919     100.000
 81.929     100.000
 81.939     100.000
 81.949     100.000
 81.959     100.000
 81.969     100.000
 81.979     100.000
 81.989     100.000
 81.999     100.000
 82.009     100.000
 82.019     100.000
 82.029     100.000
 82.039     100.000
 82.049     100.000
 82.059     100.000
 82.069     100.000
 82.080     100.000
 82.090     100.000
 82.100     100.000
 82.110     100.000
 82.120     100.000
 82.130     100.000
 82.140     100.000
 82.150     100.000
 82.160     100.000
 82.170     100.000
 82.180     100.000
 82.190     100.000
 82.200     100.000
 82.210     100.000
 82.220     100.000
 82.230     100.000
 82.240     100.000
 82.250     100.000
 82.260     100.000
 82.270     100.000
 82.280     100.000
 82.290     100.000
 82.300     100.000
 82.310     100.000
 82.320     100.000
 82.330     100.000
 82.340     100.000
 82.350     100.000
 82.360     100.000
 82.370     100.000
 82.380     100.000
 82.390     100.000
 82.400     100.000
 82.410     100.000
 82.420     100.000
 82.430     100.000
 82.440     100.000
 82.450     100.000
 82.460     100.000
 82.470     100.000
 82.480     100.000
 82.490     100.000
 82.500     100.000
 82.510     100.000
 82.520     100.000
 82.530     100.000
 82.540     100.000
 82.550     100.000
 82.560     100.000
 82.570     100.000
 82.580     100.000
 82.590     100.000
 82.600     100.000
 82.610     100.000
 82.620     100.000
 82.631     100.000
 82.641     100.000
 82.651     100.000
 82.661     100.000
 82.671     100.000
 82.681     100.000
 82.691     100.000
 82.701     100.000
 82.711     100.000
 82.721     100.000
 82.731     100.000
 82.741     100.000
 82.751     100.000
 82.761     100.000
 82.771     100.000
 82.781     100.000
 82.791     100.000
 82.801     100.000
 82.811     100.000
 82.821     100.000
 82.831     100.000
 82.841     100.000
 82.851     100.000
 82.861     100.000
 82.871     100.000
 82.881     100.000
 82.891     100.000
 82.901     100.000
 82.911     100.000
 82.921     100.000
 82.931     100.000
 82.941     100.000
 82.951     100.000
 82.961     100.000
 82.971     100.000
 82.981     100.000
 82.991     100.000
 83.001     100.000
 83.011     100.000
 83.021     100.000
 83.031     100.000
 83.041     100.000
 83.051     100.000
 83.061     100.000
 83.071     100.000
 83.081     100.000
 83.091     100.000
 83.101     100.000
 83.111     100.000
 83.121     100.000
 83.131     100.000
 83.141     100.000
 83.151     100.000
 83.161     100.000
 83.171     100.000
 83.181     100.000
 83.192     100.000
 83.202     100.000
 83.212     100.000
 83.222     100.000
 83.232     100.000
 83.242     100.000
 83.252     100.000
 83.262     100.000
 83.272     100.000
 83.282     100.000
 83.292     100.000
 83.302     100.000
 83.312     100.000
 83.322     100.000
 83.332     100.000
 83.342     100.000
 83.352     100.000
 83.362     100.000
 83.372     100.000
 83.382     100.000
 83.392     100.000
 83.402     100.000
 83.412     100.000
 83.422     100.000
 83.432     100.000
 83.442     100.000
 83.452     100.000
 83.462     100.000
 83.472     100.000
 83.482     100.000
 83.492     100.000
 83.502     100.000
 83.512     100.000
 83.522     100.000
 83.532     100.000
 83.542     100.000
 83.552     100.000
 83.562     100.000
 83.572     100.000
 83.582     100.000
 83.592     100.000
 83.602     100.000
 83.612     100.000
 83.622     100.000
 83.632     100.000
 83.642     100.000
 83.652     100.000
 83.662     100.000
 83.672     100.000
 83.682     100.000
 83.692     100.000
 83.702     100.000
 83.712     100.000
 83.722     100.000
 83.732     100.000
 83.743     100.000
 83.753     100.000
 83.763     100.000
 83.773     100.000
 83.783     100.000
 83.793     100.000
 83.803     100.000
 83.813     100.000
 83.823     100.000
 83.833     100.000
 83.843     100.000
 83.853     100.000
 83.863     100.000
 83.873     100.000
 83.883     100.000
 83.893     100.000
 83.903     100.000
 83.913     100.000
 83.923     100.000
 83.933     100.000
 83.943     100.000
 83.953     100.000
 83.963     100.000
 83.973     100.000
 83.983     100.000
 83.993     100.000
 84.003     100.000
 84.013     100.000
 84.023     100.000
 84.033     100.000
 84.043     100.000
 84.053     100.000
 84.063     100.000
 84.073     100.000
 84.083     100.000
 84.093     100.000
 84.103     100.000
 84.113     100.000
 84.123     100.000
 84.133     100.000
 84.143     100.000
 84.153     100.000
 84.163     100.000
 84.173     100.000
 84.183     100.000
 84.193     100.000
 84.203     100.000
 84.213     100.000
 84.223     100.000
 84.233     100.000
 84.243     100.000
 84.253     100.000
 84.263     100.000
 84.273     100.000
 84.283     100.000
 84.293     100.000
 84.304     100.000
 84.314     100.000
 84.324     100.000
 84.334     100.000
 84.344     100.000
 84.354     100.000
 84.364     100.000
 84.374     100.000
 84.384     100.000
 84.394     100.000
 84.404     100.000
 84.414     100.000
 84.424     100.000
 84.434     100.000
 84.444     100.000
 84.454     100.000
 84.464     100.000
 84.474     100.000
 84.484     100.000
 84.494     100.000
 84.504     100.000
 84.514     100.000
 84.524     100.000
 84.534     100.000
 84.544     100.000
 84.554     100.000
 84.564     100.040
 84.574     100.117
 84.584     100.321
 84.594     100.831
 84.604     102.039
 84.614     104.729
 84.624     110.373
 84.634     121.521
 84.644     142.235
 84.654     178.399
 84.664     237.650
 84.674     328.602
 84.684     459.102
 84.694     633.566
 84.704     849.881
 84.714    1096.852
 84.724    1353.439
 84.734    1590.933
 84.744    1777.190
 84.754    1884.616
 84.764    1896.192
 84.774    1810.105
 84.784    1640.271
 84.794    1412.740
 84.804    1159.306
 84.814     910.492
 84.824     690.034
 84.834     512.118
 84.844     381.448
 84.854     295.288
 84.865     246.267
 84.875     225.101
 84.885     222.246
 84.895     229.160
 84.905     238.813
 84.915     245.958
 84.925     247.288
 84.935     241.436
 84.945     228.783
 84.955     211.027
 84.965     190.558
 84.975     169.897
 84.985     151.017
 84.995     135.229
 85.005     123.010
 85.015     114.216
 85.025     108.307
 85.035     104.592
 85.045     102.401
 85.055     101.187
 85.065     100.555
 85.075     100.246
 85.085     100.103
 85.095     100.041
 85.105     100.015
 85.115     100.005
 85.125     100.000
 85.135     100.000
 85.145     100.000
 85.155     100.000
 85.165     100.000
 85.175     100.000
 85.185     100.000
 85.195     100.000
 85.205     100.000
 85.215     100.000
 85.225     100.000
 85.235     100.000
 85.245     100.000
 85.255     100.000
 85.265     100.000
 85.275     100.000
 85.285     100.000
 85.295     100.000
 85.305     100.000
 85.315     100.000
 85.325     100.000
 85.335     100.000
 85.345     100.000
 85.355     100.000
 85.365     100.000
 85.375     100.000
 85.385     100.000
 85.395     100.000
 85.405     100.000
 85.416     100.000
 85.426     100.000
 85.436     100.000
 85.446     100.000
 85.456     100.000
 85.466     100.000
 85.476     100.000
 85.486     100.000
 85.496     100.000
 85.506     100.000
 85.516     100.000
 85.526     100.000
 85.536     100.000
 85.546     100.000
 85.556     100.000
 85.566     100.000
 85.576     100.000
 85.586     100.000
 85.596     100.000
 85.606     100.000
 85.616     100.000
 85.626     100.000
 85.636     100.000
 85.646     100.000
 85.656     100.000
 85.666     100.000
 85.676     100.000
 85.686     100.000
 85.696     100.000
 85.706     100.000
 85.716     100.000
 85.726     100.000
 85.736     100.000
 85.746     100.000
 85.756     100.000
 85.766     100.000
 85.776     100.000
 85.786     100.000
 85.796     100.000
 85.806     100.000
 85.816     100.000
 85.826     100.000
 85.836     100.000
 85.846     100.000
 85.856     100.000
 85.866     100.000
 85.876     100.000
 85.886     100.000
 85.896     100.000
 85.906     100.000
 85.916     100.000
 85.926     100.000
 85.936     100.000
 85.946     100.000
 85.956     100.000
 85.966     100.000
 85.977     100.000
 85.987     100.000
 85.997     100.000
 86.007     100.000
 86.017     100.000
 86.027     100.000
 86.037     100.000
 86.047     100.000
 86.057     100.000
 86.067     100.000
 86.077     100.000
 86.087     100.000
 86.097     100.000
 86.107     100.000
 86.117     100.000
 86.127     100.000
 86.137     100.000
 86.147     100.000
 86.157     100.000
 86.167     100.000
 86.177     100.000
 86.187     100.000
 86.197     100.000
 86.207     100.000
 86.217     100.000
 86.227     100.000
 86.237     100.000
 86.247     100.000
 86.257     100.000
 86.267     100.000
 86.277     100.000
 86.287     100.000
 86.297     100.000
 86.307     100.000
 86.317     100.000
 86.327     100.000
 86.337     100.000
 86.347     100.000
 86.357     100.000
 86.367     100.000
 86.377     100.000
 86.387     100.000
 86.397     100.000
 86.407     100.000
 86.417     100.000
 86.427     100.000
 86.437     100.000
 86.447     100.000
 86.457     100.000
 86.467     100.000
 86.477     100.000
 86.487     100.000
 86.497     100.000
 86.507     100.000
 86.517     100.000
 86.528     100.000
 86.538     100.000
 86.548     100.000
 86.558     100.000
 86.568     100.000
 86.578     100.000
 86.588     100.000
 86.598     100.000
 86.608     100.000
 86.618     100.000
 86.628     100.000
 86.638     100.000
 86.648     100.000
 86.658     100.000
 86.668     100.000
 86.678     100.000
 86.688     100.000
 86.698     100.000
 86.708     100.000
 86.718     100.000
 86.728     100.000
 86.738     100.000
 86.748     100.000
 86.758     100.000
 86.768     100.000
 86.778     100.000
 86.788     100.000
 86.798     100.000
 86.808     100.000
 86.818     100.000
 86.828     100.000
 86.838     100.000
 86.848     100.000
 86.858     100.000
 86.868     100.000
 86.878     100.000
 86.888     100.000
 86.898     100.000
 86.908     100.000
 86.918     100.000
 86.928     100.000
 86.938     100.000
 86.948     100.000
 86.958     100.000
 86.968     100.000
 86.978     100.000
 86.988     100.000
 86.998     100.000
 87.008     100.000
 87.018     100.000
 87.028     100.000
 87.038     100.000
 87.048     100.000
 87.058     100.000
 87.068     100.000
 87.078     100.000
 87.089     100.000
 87.099     100.000
 87.109     100.000
 87.119     100.000
 87.129     100.000
 87.139     100.000
 87.149     100.000
 87.159     100.000
 87.169     100.000
 87.179     100.000
 87.189     100.000
 87.199     100.000
 87.209     100.000
 87.219     100.000
 87.229     100.000
 87.239     100.000
 87.249     100.000
 87.259     100.000
 87.269     100.000
 87.279     100.000
 87.289     100.000
 87.299     100.000
 87.309     100.000
 87.319     100.000
 87.329     100.000
 87.339     100.000
 87.349     100.000
 87.359     100.000
 87.369     100.000
 87.379     100.000
 87.389     100.000
 87.399     100.000
 87.409     100.000
 87.419     100.000
 87.429     100.000
 87.439     100.000
 87.449     100.000
 87.459     100.000
 87.469     100.000
 87.479     100.000
 87.489     100.000
 87.499     100.000
 87.509     100.000
 87.519     100.000
 87.529     100.000
 87.539     100.000
 87.549     100.000
 87.559     100.000
 87.569     100.000
 87.579     100.000
 87.589     100.000
 87.599     100.000
 87.609     100.000
 87.619     100.000
 87.629     100.000
 87.640     100.000
 87.650     100.000
 87.660     100.000
 87.670     100.000
 87.680     100.000
 87.690     100.000
 87.700     100.000
 87.710     100.000
 87.720     100.000
 87.730     100.000
 87.740     100.000
 87.750     100.000
 87.760     100.000
 87.770     100.000
 87.780     100.000
 87.790     100.000
 87.800     100.000
 87.810     100.000
 87.820     100.000
 87.830     100.000
 87.840     100.000
 87.850     100.000
 87.860     100.000
 87.870     100.000
 87.880     100.000
 87.890     100.000
 87.900     100.000
 87.910     100.000
 87.920     100.000
 87.930     100.000
 87.940     100.000
 87.950     100.000
 87.960     100.000
 87.970     100.000
 87.980     100.000
 87.990     100.000
 88.000     100.000
 88.010     100.000
 88.020     100.000
 88.030     100.000
 88.040     100.000
 88.050     100.000
 88.060     100.000
 88.070     100.000
 88.080     100.000
 88.090     100.000
 88.100     100.000
 88.110     100.000
 88.120     100.000
 88.130     100.000
 88.140     100.000
 88.150     100.000
 88.160     100.000
 88.170     100.000
 88.180     100.000
 88.190     100.000
 88.201     100.000
 88.211     100.000
 88.221     100.000
 88.231     100.000
 88.241     100.000
 88.251     100.000
 88.261     100.000
 88.271     100.000
 88.281     100.000
 88.291     100.000
 88.301     100.000
 88.311     100.000
 88.321     100.000
 88.331     100.000
 88.341     100.000
 88.351     100.000
 88.361     100.000
 88.371     100.000
 88.381     100.000
 88.391     100.000
 88.401     100.000
 88.411     100.000
 88.421     100.000
 88.431     100.000
 88.441     100.000
 88.451     100.000
 88.461     100.000
 88.471     100.000
 88.481     100.000
 88.491     100.000
 88.501     100.000
 88.511     100.000
 88.521     100.000
 88.531     100.000
 88.541     100.000
 88.551     100.000
 88.561     100.000
 88.571     100.000
 88.581     100.000
 88.591     100.000
 88.601     100.000
 88.611     100.000
 88.621     100.000
 88.631     100.000
 88.641     100.000
 88.651     100.000
 88.661     100.000
 88.671     100.000
 88.681     100.000
 88.691     100.000
 88.701     100.000
 88.711     100.000
 88.721     100.000
 88.731     100.000
 88.741     100.000
 88.751     100.000
 88.762     100.000
 88.772     100.000
 88.782     100.000
 88.792     100.000
 88.802     100.000
 88.812     100.000
 88.822     100.000
 88.832     100.000
 88.842     100.000
 88.852     100.000
 88.862     100.000
 88.872     100.000
 88.882     100.000
 88.892     100.000
 88.902     100.000
 88.912     100.000
 88.922     100.000
 88.932     100.000
 88.942     100.000
 88.952     100.000
 88.962     100.000
 88.972     100.000
 88.982     100.000
 88.992     100.000
 89.002     100.000
 89.012     100.000
 89.022     100.000
 89.032     100.000
 89.042     100.000
 89.052     100.000
 89.062     100.000
 89.072     100.000
 89.082     100.000
 89.092     100.000
 89.102     100.000
 89.112     100.000
 89.122     100.000
 89.132     100.000
 89.142     100.000
 89.152     100.000
 89.162     100.000
 89.172     100.000
 89.182     100.000
 89.192     100.000
 89.202     100.000
 89.212     100.000
 89.222     100.000
 89.232     100.000
 89.242     100.000
 89.252     100.000
 89.262     100.000
 89.272     100.000
 89.282     100.000
 89.292     100.000
 89.302     100.000
 89.313     100.000
 89.323     100.000
 89.333     100.000
 89.343     100.000
 89.353     100.000
 89.363     100.000
 89.373     100.000
 89.383     100.000
 89.393     100.000
 89.403     100.000
 89.413     100.000
 89.423     100.000
 89.433     100.000
 89.443     100.000
 89.453     100.000
 89.463     100.000
 89.473     100.000
 89.483     100.000
 89.493     100.000
 89.503     100.000
 89.513     100.000
 89.523     100.000
 89.533     100.000
 89.543     100.000
 89.553     100.000
 89.563     100.000
 89.573     100.000
 89.583     100.000
 89.593     100.000
 89.603     100.000
 89.613     100.000
 89.623     100.000
 89.633     100.000
 89.643     100.000
 89.653     100.000
 89.663     100.000
 89.673     100.000
 89.683     100.000
 89.693     100.000
 89.703     100.000
 89.713     100.000
 89.723     100.000
 89.733     100.000
 89.743     100.000
 89.753     100.000
 89.763     100.000
 89.773     100.000
 89.783     100.000
 89.793     100.000
 89.803     100.000
 89.813     100.000
 89.823     100.000
 89.833     100.000
 89.843     100.000
 89.853     100.000
 89.863     100.000
 89.874     100.000
 89.884     100.000
 89.894     100.000
 89.904     100.000
 89.914     100.000
 89.924     100.000
 89.934     100.000
 89.944     100.000
 89.954     100.000
 89.964     100.000
 89.974     100.000
 89.984     100.000
 89.994     100.000
 90.004     100.000
